Time,Signal,Peaks
0.0,0.4774774774774775,0
17.0,0.46846846846846846,0
33.0,0.46846846846846846,0
50.0,0.4774774774774775,0
67.0,0.4594594594594595,0
83.0,0.4774774774774775,0
100.0,0.4774774774774775,0
117.0,0.4774774774774775,0
133.0,0.46846846846846846,0
150.0,0.44144144144144143,0
167.0,0.44144144144144143,0
183.0,0.4144144144144144,0
200.0,0.3783783783783784,0
217.0,0.36936936936936937,0
233.0,0.36036036036036034,0
250.0,0.3333333333333333,0
267.0,0.2972972972972973,0
283.0,0.2972972972972973,0
300.0,0.2972972972972973,0
317.0,0.2702702702702703,0
333.0,0.21621621621621623,0
350.0,0.23423423423423423,0
367.0,0.22522522522522523,0
383.0,0.21621621621621623,0
400.0,0.21621621621621623,0
417.0,0.2072072072072072,0
433.0,0.23423423423423423,0
450.0,0.1981981981981982,0
467.0,0.1981981981981982,0
483.0,0.1891891891891892,0
500.0,0.17117117117117117,0
517.0,0.16216216216216217,0
533.0,0.14414414414414414,0
550.0,0.16216216216216217,0
567.0,0.14414414414414414,0
583.0,0.12612612612612611,0
600.0,0.10810810810810811,0
617.0,0.09009009009009009,0
633.0,0.07207207207207207,0
650.0,0.06306306306306306,0
667.0,0.05405405405405406,0
683.0,0.036036036036036036,0
700.0,0.02702702702702703,0
717.0,0.018018018018018018,0
733.0,0.009009009009009009,0
750.0,0.0,0
767.0,0.0,0
783.0,0.0,0
800.0,0.05405405405405406,0
817.0,0.14414414414414414,0
833.0,0.2702702702702703,0
850.0,0.3783783783783784,0
867.0,0.5315315315315315,0
883.0,0.6396396396396397,0
900.0,0.7117117117117117,0
917.0,0.7747747747747747,1
933.0,0.7657657657657657,0
950.0,0.7567567567567568,0
967.0,0.7387387387387387,0
983.0,0.7027027027027027,0
1000.0,0.6576576576576577,0
1016.9999999999999,0.6126126126126126,0
1033.0,0.5945945945945946,0
1050.0,0.5495495495495496,0
1067.0,0.5135135135135135,0
1083.0,0.5045045045045045,0
1100.0,0.4864864864864865,0
1117.0,0.46846846846846846,0
1133.0,0.46846846846846846,0
1150.0,0.4864864864864865,0
1167.0,0.4774774774774775,0
1183.0,0.4954954954954955,0
1200.0,0.5045045045045045,0
1217.0,0.4774774774774775,0
1233.0,0.4774774774774775,0
1250.0,0.4594594594594595,0
1267.0,0.4594594594594595,0
1283.0,0.42342342342342343,0
1300.0,0.42342342342342343,0
1317.0,0.40540540540540543,0
1333.0,0.36936936936936937,0
1350.0,0.36036036036036034,0
1367.0,0.3063063063063063,0
1383.0,0.2702702702702703,0
1400.0,0.23423423423423423,0
1417.0,0.21621621621621623,0
1433.0,0.1981981981981982,0
1450.0,0.18018018018018017,0
1467.0,0.2072072072072072,0
1483.0,0.1981981981981982,0
1500.0,0.1981981981981982,0
1517.0,0.1981981981981982,0
1533.0,0.1891891891891892,0
1550.0,0.1891891891891892,0
1567.0,0.1891891891891892,0
1583.0,0.18018018018018017,0
1600.0,0.17117117117117117,0
1617.0,0.16216216216216217,0
1633.0,0.15315315315315314,0
1650.0,0.13513513513513514,0
1667.0,0.12612612612612611,0
1683.0,0.10810810810810811,0
1700.0,0.09009009009009009,0
1717.0,0.08108108108108109,0
1733.0,0.06306306306306306,0
1750.0,0.04504504504504504,0
1767.0,0.036036036036036036,0
1783.0,0.018018018018018018,0
1800.0,0.009009009009009009,0
1817.0,0.0,0
1833.0,0.036036036036036036,0
1850.0,0.10810810810810811,0
1867.0,0.1891891891891892,0
1883.0,0.3333333333333333,0
1900.0,0.4594594594594595,0
1917.0,0.5945945945945946,0
1933.0,0.7027027027027027,0
1950.0,0.7657657657657657,0
1967.0,0.8108108108108109,1
1983.0,0.7927927927927928,0
2000.0,0.7837837837837838,0
2017.0,0.7567567567567568,0
2033.0,0.7207207207207207,0
2050.0,0.6756756756756757,0
2067.0,0.6306306306306306,0
2083.0,0.5855855855855856,0
2100.0,0.5405405405405406,0
2117.0,0.5045045045045045,0
2133.0,0.4774774774774775,0
2150.0,0.4594594594594595,0
2167.0,0.45045045045045046,0
2183.0,0.4594594594594595,0
2200.0,0.46846846846846846,0
2217.0,0.4864864864864865,0
2233.0,0.5045045045045045,0
2250.0,0.5135135135135135,0
2267.0,0.5135135135135135,0
2283.0,0.5045045045045045,0
2300.0,0.4774774774774775,0
2317.0,0.45045045045045046,0
2333.0,0.4144144144144144,0
2350.0,0.3783783783783784,0
2367.0,0.35135135135135137,0
2383.0,0.34234234234234234,0
2400.0,0.34234234234234234,0
2417.0,0.3063063063063063,0
2433.0,0.3063063063063063,0
2450.0,0.27927927927927926,0
2467.0,0.26126126126126126,0
2483.0,0.24324324324324326,0
2500.0,0.1981981981981982,0
2517.0,0.1981981981981982,0
2533.0,0.1981981981981982,0
2550.0,0.22522522522522523,0
2567.0,0.22522522522522523,0
2583.0,0.22522522522522523,0
2600.0,0.25225225225225223,0
2617.0,0.24324324324324326,0
2633.0,0.23423423423423423,0
2650.0,0.21621621621621623,0
2667.0,0.2072072072072072,0
2683.0,0.1891891891891892,0
2700.0,0.17117117117117117,0
2717.0,0.1891891891891892,0
2733.0,0.17117117117117117,0
2750.0,0.15315315315315314,0
2767.0,0.16216216216216217,0
2783.0,0.14414414414414414,0
2800.0,0.12612612612612611,0
2817.0,0.10810810810810811,0
2833.0,0.09009009009009009,0
2850.0,0.07207207207207207,0
2867.0,0.06306306306306306,0
2883.0,0.07207207207207207,0
2900.0,0.12612612612612611,0
2917.0,0.1981981981981982,0
2933.0,0.32432432432432434,0
2950.0,0.44144144144144143,0
2967.0,0.5765765765765766,0
2983.0,0.6846846846846847,0
3000.0,0.7657657657657657,0
3017.0,0.8288288288288288,1
3033.0,0.8198198198198198,0
3050.0,0.8108108108108109,0
3067.0,0.7837837837837838,0
3083.0,0.7567567567567568,0
3100.0,0.7117117117117117,0
3117.0,0.6666666666666666,0
3133.0,0.6216216216216216,0
3150.0,0.5765765765765766,0
3167.0,0.5405405405405406,0
3183.0,0.5045045045045045,0
3200.0,0.4774774774774775,0
3217.0,0.46846846846846846,0
3233.0,0.4774774774774775,0
3250.0,0.4864864864864865,0
3267.0,0.5045045045045045,0
3283.0,0.5225225225225225,0
3300.0,0.5315315315315315,0
3317.0,0.5315315315315315,0
3333.0,0.5225225225225225,0
3350.0,0.4954954954954955,0
3367.0,0.46846846846846846,0
3383.0,0.44144144144144143,0
3400.0,0.40540540540540543,0
3417.0,0.36936936936936937,0
3433.0,0.34234234234234234,0
3450.0,0.3333333333333333,0
3467.0,0.3063063063063063,0
3483.0,0.2702702702702703,0
3500.0,0.27927927927927926,0
3517.0,0.25225225225225223,0
3533.0,0.2702702702702703,0
3550.0,0.25225225225225223,0
3567.0,0.27927927927927926,0
3583.0,0.2702702702702703,0
3600.0,0.26126126126126126,0
3617.0,0.26126126126126126,0
3633.0,0.22522522522522523,0
3650.0,0.22522522522522523,0
3667.0,0.1891891891891892,0
3683.0,0.18018018018018017,0
3700.0,0.18018018018018017,0
3717.0,0.1981981981981982,0
3733.0,0.1891891891891892,0
3750.0,0.17117117117117117,0
3767.0,0.1891891891891892,0
3783.0,0.2072072072072072,0
3800.0,0.1891891891891892,0
3817.0,0.18018018018018017,0
3833.0,0.1891891891891892,0
3850.0,0.17117117117117117,0
3867.0,0.15315315315315314,0
3883.0,0.14414414414414414,0
3900.0,0.12612612612612611,0
3917.0,0.13513513513513514,0
3933.0,0.17117117117117117,0
3950.0,0.25225225225225223,0
3967.0,0.3333333333333333,0
3983.0,0.44144144144144143,0
4000.0,0.5585585585585585,0
4017.0000000000005,0.6756756756756757,0
4033.0000000000005,0.7567567567567568,0
4050.0,0.7927927927927928,0
4067.0,0.8288288288288288,1
4083.0,0.8198198198198198,0
4100.0,0.8018018018018018,0
4117.0,0.7567567567567568,0
4133.0,0.7117117117117117,0
4150.0,0.6576576576576577,0
4167.0,0.6036036036036037,0
4183.0,0.5495495495495496,0
4200.0,0.5315315315315315,0
4217.0,0.4954954954954955,0
4233.0,0.46846846846846846,0
4250.0,0.4594594594594595,0
4267.0,0.4594594594594595,0
4283.0,0.4774774774774775,0
4300.0,0.46846846846846846,0
4317.0,0.4954954954954955,0
4333.0,0.5135135135135135,0
4350.0,0.5135135135135135,0
4367.0,0.5135135135135135,0
4383.0,0.4864864864864865,0
4400.0,0.46846846846846846,0
4417.0,0.43243243243243246,0
4433.0,0.3963963963963964,0
4450.0,0.38738738738738737,0
4467.0,0.3783783783783784,0
4483.0,0.34234234234234234,0
4500.0,0.3063063063063063,0
4517.0,0.3063063063063063,0
4533.0,0.27927927927927926,0
4550.0,0.22522522522522523,0
4567.0,0.21621621621621623,0
4583.0,0.2072072072072072,0
4600.0,0.23423423423423423,0
4617.0,0.23423423423423423,0
4633.0,0.23423423423423423,0
4650.0,0.26126126126126126,0
4667.0,0.26126126126126126,0
4683.0,0.25225225225225223,0
4700.0,0.25225225225225223,0
4717.0,0.24324324324324326,0
4733.0,0.26126126126126126,0
4750.0,0.22522522522522523,0
4767.0,0.2072072072072072,0
4783.0,0.22522522522522523,0
4800.0,0.18018018018018017,0
4817.0,0.16216216216216217,0
4833.0,0.14414414414414414,0
4850.0,0.16216216216216217,0
4867.0,0.14414414414414414,0
4883.0,0.12612612612612611,0
4900.0,0.13513513513513514,0
4917.0,0.11711711711711711,0
4933.0,0.11711711711711711,0
4950.0,0.14414414414414414,0
4967.0,0.2072072072072072,0
4983.0,0.2882882882882883,0
5000.0,0.38738738738738737,0
5017.0,0.5135135135135135,0
5033.0,0.6396396396396397,0
5050.0,0.7387387387387387,0
5067.0,0.7927927927927928,0
5083.0,0.8108108108108109,1
5100.0,0.8018018018018018,0
5117.0,0.7927927927927928,0
5133.0,0.7387387387387387,0
5150.0,0.6756756756756757,0
5167.0,0.6396396396396397,0
5183.0,0.6306306306306306,0
5200.0,0.5945945945945946,0
5217.0,0.5585585585585585,0
5233.0,0.5495495495495496,0
5250.0,0.5585585585585585,0
5267.0,0.5405405405405406,0
5283.0,0.5045045045045045,0
5300.0,0.5135135135135135,0
5317.0,0.5225225225225225,0
5333.0,0.5135135135135135,0
5350.0,0.4954954954954955,0
5367.0,0.5045045045045045,0
5383.0,0.5225225225225225,0
5400.0,0.5045045045045045,0
5417.0,0.4864864864864865,0
5433.0,0.4774774774774775,0
5450.0,0.46846846846846846,0
5467.0,0.43243243243243246,0
5483.0,0.3963963963963964,0
5500.0,0.38738738738738737,0
5517.0,0.36036036036036034,0
5533.0,0.32432432432432434,0
5550.0,0.2972972972972973,0
5567.0,0.27927927927927926,0
5583.0,0.26126126126126126,0
5600.0,0.25225225225225223,0
5617.0,0.24324324324324326,0
5633.0,0.24324324324324326,0
5650.0,0.24324324324324326,0
5667.0,0.24324324324324326,0
5683.0,0.24324324324324326,0
5700.0,0.24324324324324326,0
5717.0,0.24324324324324326,0
5733.0,0.23423423423423423,0
5750.0,0.22522522522522523,0
5767.0,0.2072072072072072,0
5783.0,0.1981981981981982,0
5800.0,0.18018018018018017,0
5817.0,0.16216216216216217,0
5833.0,0.14414414414414414,0
5850.0,0.13513513513513514,0
5867.0,0.14414414414414414,0
5883.0,0.15315315315315314,0
5900.0,0.13513513513513514,0
5917.0,0.11711711711711711,0
5933.0,0.0990990990990991,0
5950.0,0.09009009009009009,0
5967.0,0.07207207207207207,0
5983.0,0.09009009009009009,0
6000.0,0.18018018018018017,0
6017.0,0.2972972972972973,0
6033.0,0.43243243243243246,0
6050.0,0.5495495495495496,0
6067.0,0.6486486486486487,0
6083.0,0.7207207207207207,0
6100.0,0.7567567567567568,1
6117.0,0.7477477477477478,0
6133.0,0.7207207207207207,0
6150.0,0.7027027027027027,0
6167.0,0.6756756756756757,0
6183.0,0.6396396396396397,0
6200.0,0.6036036036036037,0
6217.0,0.5675675675675675,0
6233.0,0.5315315315315315,0
6250.0,0.5045045045045045,0
6267.0,0.4774774774774775,0
6283.0,0.46846846846846846,0
6300.0,0.46846846846846846,0
6317.0,0.4774774774774775,0
6333.0,0.4954954954954955,0
6350.0,0.5135135135135135,0
6367.0,0.5225225225225225,0
6383.0,0.5315315315315315,0
6400.0,0.5225225225225225,0
6417.0,0.5045045045045045,0
6433.0,0.4774774774774775,0
6450.0,0.45045045045045046,0
6467.0,0.4144144144144144,0
6483.0,0.38738738738738737,0
6500.0,0.36036036036036034,0
6517.0,0.3333333333333333,0
6533.0,0.2972972972972973,0
6550.0,0.27927927927927926,0
6567.0,0.26126126126126126,0
6583.0,0.24324324324324326,0
6600.0,0.23423423423423423,0
6617.0,0.23423423423423423,0
6633.0,0.22522522522522523,0
6650.0,0.22522522522522523,0
6667.0,0.23423423423423423,0
6683.0,0.23423423423423423,0
6700.0,0.23423423423423423,0
6717.0,0.23423423423423423,0
6733.0,0.22522522522522523,0
6750.0,0.21621621621621623,0
6767.0,0.21621621621621623,0
6783.0,0.2072072072072072,0
6800.0,0.1891891891891892,0
6817.0,0.18018018018018017,0
6833.0,0.16216216216216217,0
6850.0,0.15315315315315314,0
6867.0,0.13513513513513514,0
6883.0,0.11711711711711711,0
6900.0,0.10810810810810811,0
6917.0,0.09009009009009009,0
6933.0,0.09009009009009009,0
6950.0,0.0990990990990991,0
6967.0,0.15315315315315314,0
6983.0,0.23423423423423423,0
7000.0,0.35135135135135137,0
7017.0,0.46846846846846846,0
7033.0,0.6036036036036037,0
7050.0,0.7207207207207207,0
7067.0,0.8018018018018018,0
7083.0,0.8468468468468469,0
7100.0,0.8558558558558559,1
7117.0,0.8378378378378378,0
7133.0,0.8108108108108109,0
7150.0,0.7657657657657657,0
7167.0,0.7207207207207207,0
7183.0,0.6756756756756757,0
7200.0,0.6216216216216216,0
7217.0,0.5765765765765766,0
7233.0,0.5405405405405406,0
7250.0,0.5135135135135135,0
7267.0,0.4954954954954955,0
7283.0,0.4954954954954955,0
7300.0,0.5045045045045045,0
7317.0,0.5225225225225225,0
7333.0,0.5405405405405406,0
7350.0,0.5495495495495496,0
7367.0,0.5495495495495496,0
7383.0,0.5405405405405406,0
7400.0,0.5135135135135135,0
7417.0,0.4864864864864865,0
7433.0,0.45045045045045046,0
7450.0,0.40540540540540543,0
7467.0,0.36936936936936937,0
7483.0,0.34234234234234234,0
7500.0,0.3063063063063063,0
7517.0,0.2702702702702703,0
7533.0,0.24324324324324326,0
7550.0,0.22522522522522523,0
7567.0,0.2072072072072072,0
7583.0,0.1981981981981982,0
7600.0,0.1981981981981982,0
7617.0,0.1981981981981982,0
7633.0,0.1981981981981982,0
7650.0,0.1981981981981982,0
7667.0,0.1981981981981982,0
7683.0,0.1981981981981982,0
7700.0,0.1981981981981982,0
7717.0,0.1891891891891892,0
7733.0,0.18018018018018017,0
7750.0,0.17117117117117117,0
7767.0,0.16216216216216217,0
7783.0,0.15315315315315314,0
7800.0,0.13513513513513514,0
7817.0,0.12612612612612611,0
7833.0,0.10810810810810811,0
7850.0,0.0990990990990991,0
7867.0,0.09009009009009009,0
7883.0,0.08108108108108109,0
7900.0,0.07207207207207207,0
7917.0,0.06306306306306306,0
7933.0,0.05405405405405406,0
7950.0,0.05405405405405406,0
7967.0,0.05405405405405406,0
7983.0,0.07207207207207207,0
8000.0,0.13513513513513514,0
8016.999999999999,0.24324324324324326,0
8032.999999999999,0.36036036036036034,0
8050.000000000001,0.5135135135135135,0
8067.0,0.6576576576576577,0
8083.0,0.7927927927927928,1
8100.0,0.0,0
8117.000000000001,0.0,0
8132.999999999999,0.0,0
8150.0,0.0,0
8167.0,0.0,0
8183.0,0.0,0
8200.0,0.0,0
8217.0,0.0,0
8233.0,0.0,0
8250.0,0.0,0
8267.0,0.0,0
8283.0,0.0,0
8300.0,0.0,0
8317.0,0.0,0
8333.0,0.0,0
8350.0,0.0,0
8367.0,0.0,0
8383.0,0.0,0
8400.0,0.0,0
8417.0,0.0,0
8433.0,0.0,0
8450.0,0.0,0
8467.0,0.0,0
8483.0,0.0,0
8500.0,0.0,0
8517.0,0.0,0
8533.0,0.0,0
8550.0,0.0,0
8567.0,0.0,0
8583.0,0.0,0
8600.0,0.0,0
8617.0,0.0,0
8633.0,0.0,0
8650.0,0.0,0
8667.0,0.0,0
8683.0,0.0,0
8700.0,0.0,0
8717.0,0.0,0
8733.0,0.0,0
8750.0,0.0,0
8767.0,0.0,0
8783.0,0.0,0
8800.0,0.0,0
8817.0,0.0,0
8833.0,0.0,0
8850.0,0.0,0
8867.0,0.0,0
8883.0,0.0,0
8900.0,0.0,0
8917.0,0.0,0
8933.0,0.0,0
8950.0,0.0,0
8967.0,0.0,0
8983.0,0.0,0
9000.0,0.0,0
9017.0,0.0,0
9033.0,0.0,0
9050.0,0.0,0
9067.0,0.0,0
9083.0,0.17117117117117117,0
9100.0,0.34234234234234234,0
9117.0,0.5675675675675675,0
9133.0,0.7657657657657657,0
9150.0,0.9009009009009009,0
9167.0,0.9819819819819819,0
9183.0,1.0,1
9200.0,0.9819819819819819,0
9217.0,0.9459459459459459,0
9233.0,0.6216216216216216,0
9250.0,0.5945945945945946,0
9267.0,0.5585585585585585,0
9283.0,0.5315315315315315,0
9300.0,0.4954954954954955,0
9317.0,0.4774774774774775,0
9333.0,0.4594594594594595,0
9350.0,0.45045045045045046,0
9367.0,0.44144144144144143,0
9383.0,0.45045045045045046,0
9400.0,0.46846846846846846,0
9417.0,0.4774774774774775,0
9433.0,0.4864864864864865,0
9450.0,0.4864864864864865,0
9467.0,0.4864864864864865,0
9483.0,0.46846846846846846,0
9500.0,0.45045045045045046,0
9517.0,0.42342342342342343,0
9533.0,0.40540540540540543,0
9550.0,0.3783783783783784,0
9567.0,0.36036036036036034,0
9583.0,0.3333333333333333,0
9600.0,0.3153153153153153,0
9617.0,0.2882882882882883,0
9633.0,0.27927927927927926,0
9650.0,0.26126126126126126,0
9667.0,0.25225225225225223,0
9683.0,0.25225225225225223,0
9700.0,0.25225225225225223,0
9717.0,0.25225225225225223,0
9733.0,0.25225225225225223,0
9750.0,0.25225225225225223,0
9767.0,0.25225225225225223,0
9783.0,0.24324324324324326,0
9800.0,0.24324324324324326,0
9817.0,0.23423423423423423,0
9833.0,0.22522522522522523,0
9850.0,0.21621621621621623,0
9867.0,0.2072072072072072,0
9883.0,0.1981981981981982,0
9900.0,0.1891891891891892,0
9917.0,0.18018018018018017,0
9933.0,0.17117117117117117,0
9950.0,0.16216216216216217,0
9967.0,0.15315315315315314,0
9983.0,0.14414414414414414,0
10000.0,0.13513513513513514,0
10017.0,0.13513513513513514,0
10033.0,0.14414414414414414,0
10050.0,0.18018018018018017,0
10067.0,0.24324324324324326,0
10083.0,0.34234234234234234,0
10100.0,0.43243243243243246,0
10117.0,0.5495495495495496,0
10133.0,0.6486486486486487,0
10150.0,0.7207207207207207,0
10167.0,0.7567567567567568,0
10183.0,0.7657657657657657,1
10200.0,0.7567567567567568,0
10217.0,0.7297297297297297,0
10233.0,0.7027027027027027,0
10250.0,0.6666666666666666,0
10267.0,0.6396396396396397,0
10283.0,0.6036036036036037,0
10300.0,0.5675675675675675,0
10317.0,0.5405405405405406,0
10333.0,0.5225225225225225,0
10350.0,0.5045045045045045,0
10367.0,0.4954954954954955,0
10383.0,0.4864864864864865,0
10400.0,0.4954954954954955,0
10417.0,0.4954954954954955,0
10433.0,0.5045045045045045,0
10450.0,0.4954954954954955,0
10467.0,0.4864864864864865,0
10483.0,0.4774774774774775,0
10500.0,0.4594594594594595,0
10517.0,0.43243243243243246,0
10533.0,0.40540540540540543,0
10550.0,0.36936936936936937,0
10567.0,0.35135135135135137,0
10583.0,0.32432432432432434,0
10600.0,0.2972972972972973,0
10617.0,0.27927927927927926,0
10633.0,0.26126126126126126,0
10650.0,0.25225225225225223,0
10667.0,0.24324324324324326,0
10683.0,0.23423423423423423,0
10700.0,0.22522522522522523,0
10717.0,0.22522522522522523,0
10733.0,0.22522522522522523,0
10750.0,0.22522522522522523,0
10767.0,0.22522522522522523,0
10783.0,0.22522522522522523,0
10800.0,0.21621621621621623,0
10817.0,0.2072072072072072,0
10833.0,0.2072072072072072,0
10850.0,0.1891891891891892,0
10867.0,0.18018018018018017,0
10883.0,0.17117117117117117,0
10900.0,0.16216216216216217,0
10917.0,0.15315315315315314,0
10933.0,0.14414414414414414,0
10950.0,0.13513513513513514,0
10967.0,0.12612612612612611,0
10983.0,0.11711711711711711,0
11000.0,0.11711711711711711,0
11017.0,0.10810810810810811,0
11033.0,0.10810810810810811,0
11050.0,0.0990990990990991,0
11067.0,0.0990990990990991,0
11083.0,0.09009009009009009,0
11100.0,0.0990990990990991,0
11117.0,0.11711711711711711,0
11133.0,0.18018018018018017,0
11150.0,0.26126126126126126,0
11167.0,0.36036036036036034,0
11183.0,0.4774774774774775,0
11200.0,0.5945945945945946,0
11217.0,0.6936936936936937,0
11233.0,0.7477477477477478,0
11250.0,0.7747747747747747,1
11267.0,0.7747747747747747,0
11283.0,0.7567567567567568,0
11300.0,0.7297297297297297,0
11317.0,0.6936936936936937,0
11333.0,0.6576576576576577,0
11350.0,0.6306306306306306,0
11367.0,0.5945945945945946,0
11383.0,0.5675675675675675,0
11400.0,0.5315315315315315,0
11417.0,0.5135135135135135,0
11433.0,0.4954954954954955,0
11450.0,0.4864864864864865,0
11467.0,0.4864864864864865,0
11483.0,0.4864864864864865,0
11500.0,0.4954954954954955,0
11517.0,0.4954954954954955,0
11533.0,0.4954954954954955,0
11550.0,0.4864864864864865,0
11567.0,0.46846846846846846,0
11583.0,0.44144144144144143,0
11600.0,0.4144144144144144,0
11617.0,0.38738738738738737,0
11633.0,0.36036036036036034,0
11650.0,0.34234234234234234,0
11667.0,0.3153153153153153,0
11683.0,0.2882882882882883,0
11700.0,0.2702702702702703,0
11717.0,0.24324324324324326,0
11733.0,0.23423423423423423,0
11750.0,0.22522522522522523,0
11767.0,0.21621621621621623,0
11783.0,0.2072072072072072,0
11800.0,0.2072072072072072,0
11817.0,0.2072072072072072,0
11833.0,0.2072072072072072,0
11850.0,0.2072072072072072,0
11867.0,0.2072072072072072,0
11883.0,0.2072072072072072,0
11900.0,0.1981981981981982,0
11917.0,0.1891891891891892,0
11933.0,0.18018018018018017,0
11950.0,0.17117117117117117,0
11967.0,0.16216216216216217,0
11983.0,0.15315315315315314,0
12000.0,0.13513513513513514,0
12017.0,0.12612612612612611,0
12033.0,0.11711711711711711,0
12050.0,0.10810810810810811,0
12067.0,0.0990990990990991,0
12083.0,0.09009009009009009,0
12100.0,0.09009009009009009,0
12117.0,0.08108108108108109,0
12133.0,0.07207207207207207,0
12150.0,0.06306306306306306,0
12167.0,0.06306306306306306,0
12183.0,0.05405405405405406,0
12200.0,0.07207207207207207,0
12217.0,0.12612612612612611,0
12233.0,0.1981981981981982,0
12250.0,0.3063063063063063,0
12267.0,0.40540540540540543,0
12283.0,0.5225225225225225,0
12300.0,0.6216216216216216,0
12317.0,0.6846846846846847,0
12333.0,0.7117117117117117,1
12350.0,0.7117117117117117,0
12367.0,0.6846846846846847,0
12383.0,0.6576576576576577,0
12400.0,0.6216216216216216,0
12417.0,0.5765765765765766,0
12433.0,0.5405405405405406,0
12450.0,0.5045045045045045,0
12467.0,0.46846846846846846,0
12483.0,0.43243243243243246,0
12500.0,0.40540540540540543,0
12517.0,0.3963963963963964,0
12533.0,0.3963963963963964,0
12550.0,0.40540540540540543,0
12567.0,0.4144144144144144,0
12583.0,0.43243243243243246,0
12600.0,0.45045045045045046,0
12617.0,0.45045045045045046,0
12633.0,0.45045045045045046,0
12650.0,0.44144144144144143,0
12667.0,0.42342342342342343,0
12683.0,0.3963963963963964,0
12700.0,0.3783783783783784,0
12717.0,0.35135135135135137,0
12733.0,0.32432432432432434,0
12750.0,0.2972972972972973,0
12767.0,0.27927927927927926,0
12783.0,0.25225225225225223,0
12800.0,0.23423423423423423,0
12817.0,0.22522522522522523,0
12833.0,0.2072072072072072,0
12850.0,0.2072072072072072,0
12867.0,0.1981981981981982,0
12883.0,0.2072072072072072,0
12900.0,0.2072072072072072,0
12917.0,0.2072072072072072,0
12933.0,0.21621621621621623,0
12950.0,0.21621621621621623,0
12967.0,0.21621621621621623,0
12983.0,0.2072072072072072,0
13000.0,0.2072072072072072,0
13017.0,0.1981981981981982,0
13033.0,0.1891891891891892,0
13050.0,0.18018018018018017,0
13067.0,0.17117117117117117,0
13083.0,0.16216216216216217,0
13100.0,0.14414414414414414,0
13117.0,0.13513513513513514,0
13133.0,0.11711711711711711,0
13150.0,0.11711711711711711,0
13167.0,0.13513513513513514,0
13183.0,0.18018018018018017,0
13200.0,0.26126126126126126,0
13217.0,0.36036036036036034,0
13233.0,0.4594594594594595,0
13250.0,0.5675675675675675,0
13267.0,0.6486486486486487,0
13283.0,0.6936936936936937,0
13300.0,0.7117117117117117,1
13317.0,0.6936936936936937,0
13333.0,0.6666666666666666,0
13350.0,0.6306306306306306,0
13367.0,0.5945945945945946,0
13383.0,0.5495495495495496,0
13400.0,0.5135135135135135,0
13417.0,0.4774774774774775,0
13433.0,0.44144144144144143,0
13450.0,0.4144144144144144,0
13467.0,0.3963963963963964,0
13483.0,0.38738738738738737,0
13500.0,0.38738738738738737,0
13517.0,0.3963963963963964,0
13533.0,0.4144144144144144,0
13550.0,0.42342342342342343,0
13567.0,0.43243243243243246,0
13583.0,0.43243243243243246,0
13600.0,0.42342342342342343,0
13617.0,0.40540540540540543,0
13633.0,0.38738738738738737,0
13650.0,0.36036036036036034,0
13667.0,0.34234234234234234,0
13683.0,0.3153153153153153,0
13700.0,0.27927927927927926,0
13717.0,0.26126126126126126,0
13733.0,0.23423423423423423,0
13750.0,0.21621621621621623,0
13767.0,0.1981981981981982,0
13783.0,0.1891891891891892,0
13800.0,0.18018018018018017,0
13817.0,0.18018018018018017,0
13833.0,0.18018018018018017,0
13850.0,0.18018018018018017,0
13867.0,0.1891891891891892,0
13883.0,0.1891891891891892,0
13900.0,0.1891891891891892,0
13917.0,0.1981981981981982,0
13933.0,0.1891891891891892,0
13950.0,0.1891891891891892,0
13967.0,0.1891891891891892,0
13983.0,0.18018018018018017,0
14000.0,0.17117117117117117,0
14017.0,0.16216216216216217,0
14033.0,0.15315315315315314,0
14050.0,0.14414414414414414,0
14067.0,0.15315315315315314,0
14083.0,0.13513513513513514,0
14100.0,0.14414414414414414,0
14117.0,0.14414414414414414,0
14133.0,0.18018018018018017,0
14150.0,0.24324324324324326,0
14167.0,0.3063063063063063,0
14183.0,0.40540540540540543,0
14200.0,0.4954954954954955,0
14217.0,0.5945945945945946,0
14233.0,0.6666666666666666,0
14250.0,0.7027027027027027,0
14267.0,0.7117117117117117,1
14283.0,0.7027027027027027,0
14300.0,0.6666666666666666,0
14317.0,0.6306306306306306,0
14333.0,0.5945945945945946,0
14350.0,0.5585585585585585,0
14367.0,0.5225225225225225,0
14383.0,0.4954954954954955,0
14400.0,0.4594594594594595,0
14417.0,0.44144144144144143,0
14433.0,0.42342342342342343,0
14450.0,0.4144144144144144,0
14467.0,0.40540540540540543,0
14483.0,0.4144144144144144,0
14500.0,0.42342342342342343,0
14517.0,0.43243243243243246,0
14533.0,0.43243243243243246,0
14550.0,0.43243243243243246,0
14567.0,0.42342342342342343,0
14583.0,0.40540540540540543,0
14600.0,0.38738738738738737,0
14617.0,0.36036036036036034,0
14633.0,0.34234234234234234,0
14650.0,0.3153153153153153,0
14667.0,0.2972972972972973,0
14683.0,0.2702702702702703,0
14700.0,0.25225225225225223,0
14717.0,0.23423423423423423,0
14733.0,0.22522522522522523,0
14750.0,0.21621621621621623,0
14767.0,0.2072072072072072,0
14783.0,0.2072072072072072,0
14800.0,0.2072072072072072,0
14817.0,0.2072072072072072,0
14833.0,0.2072072072072072,0
14850.0,0.2072072072072072,0
14867.0,0.2072072072072072,0
14883.0,0.2072072072072072,0
14900.0,0.1981981981981982,0
14917.0,0.1981981981981982,0
14933.0,0.1891891891891892,0
14950.0,0.18018018018018017,0
14967.0,0.17117117117117117,0
14983.0,0.16216216216216217,0
15000.0,0.15315315315315314,0
15017.0,0.13513513513513514,0
15033.0,0.12612612612612611,0
15050.0,0.11711711711711711,0
15067.0,0.12612612612612611,0
15083.0,0.14414414414414414,0
15100.0,0.13513513513513514,0
15117.0,0.18018018018018017,0
15133.0,0.22522522522522523,0
15150.0,0.2972972972972973,0
15167.0,0.36936936936936937,0
15183.0,0.45045045045045046,0
15200.0,0.5495495495495496,0
15217.0,0.6036036036036037,0
15233.0,0.6396396396396397,0
15250.0,0.6486486486486487,1
15267.0,0.6396396396396397,0
15283.0,0.6126126126126126,0
15300.0,0.5765765765765766,0
15317.0,0.5405405405405406,0
15333.0,0.5045045045045045,0
15350.0,0.46846846846846846,0
15367.0,0.44144144144144143,0
15383.0,0.4144144144144144,0
15400.0,0.38738738738738737,0
15417.0,0.36936936936936937,0
15433.0,0.36036036036036034,0
15450.0,0.36036036036036034,0
15467.0,0.36936936936936937,0
15483.0,0.3783783783783784,0
15500.0,0.38738738738738737,0
15517.0,0.3963963963963964,0
15533.0,0.38738738738738737,0
15550.0,0.38738738738738737,0
15567.0,0.36936936936936937,0
15583.0,0.36036036036036034,0
15600.0,0.34234234234234234,0
15617.0,0.3153153153153153,0
15633.0,0.2972972972972973,0
15650.0,0.2702702702702703,0
15667.0,0.25225225225225223,0
15683.0,0.23423423423423423,0
15700.0,0.21621621621621623,0
15717.0,0.2072072072072072,0
15733.0,0.1981981981981982,0
15750.0,0.1891891891891892,0
15767.0,0.1891891891891892,0
15783.0,0.1891891891891892,0
15800.0,0.1891891891891892,0
15817.0,0.1891891891891892,0
15833.0,0.1891891891891892,0
15850.0,0.1891891891891892,0
15867.0,0.2072072072072072,0
15883.0,0.22522522522522523,0
15900.0,0.21621621621621623,0
15917.0,0.23423423423423423,0
15933.0,0.24324324324324326,0
15950.0,0.23423423423423423,0
15967.0,0.1981981981981982,0
15983.0,0.1891891891891892,0
16000.0,0.18018018018018017,0
16017.0,0.15315315315315314,0
16033.000000000002,0.14414414414414414,0
16050.0,0.13513513513513514,0
16067.0,0.14414414414414414,0
16082.999999999998,0.13513513513513514,0
16100.000000000002,0.12612612612612611,0
16117.0,0.14414414414414414,0
16133.0,0.15315315315315314,0
16149.999999999998,0.1891891891891892,0
16167.000000000002,0.23423423423423423,0
16183.0,0.2972972972972973,0
16200.0,0.3783783783783784,0
16216.999999999998,0.45045045045045046,0
16233.0,0.5045045045045045,0
16250.0,0.5585585585585585,0
16267.0,0.5675675675675675,1
16283.000000000002,0.5585585585585585,0
16300.0,0.5315315315315315,0
16317.0,0.5045045045045045,0
16332.999999999998,0.46846846846846846,0
16350.000000000002,0.43243243243243246,0
16367.0,0.3963963963963964,0
16383.0,0.36936936936936937,0
16400.0,0.35135135135135137,0
16417.0,0.32432432432432434,0
16433.0,0.3333333333333333,0
16450.0,0.32432432432432434,0
16467.0,0.32432432432432434,0
16483.0,0.36036036036036034,0
16500.0,0.36936936936936937,0
16517.0,0.3783783783783784,0
16533.0,0.36936936936936937,0
16550.0,0.36936936936936937,0
16567.0,0.36936936936936937,0
16583.0,0.34234234234234234,0
16600.0,0.3333333333333333,0
16617.0,0.3153153153153153,0
16633.0,0.3153153153153153,0
16650.0,0.2972972972972973,0
16667.0,0.27927927927927926,0
16683.0,0.27927927927927926,0
16700.0,0.26126126126126126,0
16717.0,0.24324324324324326,0
16733.0,0.23423423423423423,0
16750.0,0.24324324324324326,0
16767.0,0.23423423423423423,0
16783.0,0.22522522522522523,0
16800.0,0.25225225225225223,0
16817.0,0.24324324324324326,0
16833.0,0.24324324324324326,0
16850.0,0.24324324324324326,0
16867.0,0.24324324324324326,0
16883.0,0.24324324324324326,0
16900.0,0.24324324324324326,0
16917.0,0.23423423423423423,0
16933.0,0.22522522522522523,0
16950.0,0.22522522522522523,0
16967.0,0.23423423423423423,0
16983.0,0.22522522522522523,0
17000.0,0.21621621621621623,0
17017.0,0.23423423423423423,0
17033.0,0.22522522522522523,0
17050.0,0.2072072072072072,0
17067.0,0.1981981981981982,0
17083.0,0.1891891891891892,0
17100.0,0.18018018018018017,0
17117.0,0.17117117117117117,0
17133.0,0.1891891891891892,0
17150.0,0.22522522522522523,0
17167.0,0.2702702702702703,0
17183.0,0.35135135135135137,0
17200.0,0.40540540540540543,0
17217.0,0.4774774774774775,0
17233.0,0.5225225225225225,0
17250.0,0.5675675675675675,0
17267.0,0.5765765765765766,1
17283.0,0.5675675675675675,0
17300.0,0.5585585585585585,0
17317.0,0.5315315315315315,0
17333.0,0.5135135135135135,0
17350.0,0.4594594594594595,0
17367.0,0.43243243243243246,0
17383.0,0.3783783783783784,0
17400.0,0.36036036036036034,0
17417.0,0.3333333333333333,0
17433.0,0.32432432432432434,0
17450.0,0.3153153153153153,0
17467.0,0.32432432432432434,0
17483.0,0.3333333333333333,0
17500.0,0.35135135135135137,0
17517.0,0.36036036036036034,0
17533.0,0.35135135135135137,0
17550.0,0.36936936936936937,0
17567.0,0.36936936936936937,0
17583.0,0.3783783783783784,0
17600.0,0.36036036036036034,0
17617.0,0.35135135135135137,0
17633.0,0.35135135135135137,0
17650.0,0.3333333333333333,0
17667.0,0.3063063063063063,0
17683.0,0.2882882882882883,0
17700.0,0.2702702702702703,0
17717.0,0.27927927927927926,0
17733.0,0.26126126126126126,0
17750.0,0.25225225225225223,0
17767.0,0.2702702702702703,0
17783.0,0.26126126126126126,0
17800.0,0.26126126126126126,0
17817.0,0.24324324324324326,0
17833.0,0.24324324324324326,0
17850.0,0.23423423423423423,0
17867.0,0.24324324324324326,0
17883.0,0.23423423423423423,0
17900.0,0.23423423423423423,0
17917.0,0.25225225225225223,0
17933.0,0.25225225225225223,0
17950.0,0.24324324324324326,0
17967.0,0.23423423423423423,0
17983.0,0.21621621621621623,0
18000.0,0.23423423423423423,0
18017.0,0.22522522522522523,0
18033.0,0.21621621621621623,0
18050.0,0.22522522522522523,0
18067.0,0.21621621621621623,0
18083.0,0.2072072072072072,0
18100.0,0.2072072072072072,0
18117.0,0.1981981981981982,0
18133.0,0.1891891891891892,0
18150.0,0.1891891891891892,0
18167.0,0.18018018018018017,0
18183.0,0.17117117117117117,0
18200.0,0.17117117117117117,0
18217.0,0.1891891891891892,0
18233.0,0.21621621621621623,0
18250.0,0.25225225225225223,0
18267.0,0.3333333333333333,0
18283.0,0.3963963963963964,0
18300.0,0.4774774774774775,0
18317.0,0.5315315315315315,0
18333.0,0.5765765765765766,0
18350.0,0.5855855855855856,0
18367.0,0.5945945945945946,1
18383.0,0.5765765765765766,0
18400.0,0.5495495495495496,0
18417.0,0.5405405405405406,0
18433.0,0.5045045045045045,0
18450.0,0.5045045045045045,0
18467.0,0.46846846846846846,0
18483.0,0.45045045045045046,0
18500.0,0.42342342342342343,0
18517.0,0.40540540540540543,0
18533.0,0.3963963963963964,0
18550.0,0.38738738738738737,0
18567.0,0.36936936936936937,0
18583.0,0.3783783783783784,0
18600.0,0.38738738738738737,0
18617.0,0.3783783783783784,0
18633.0,0.38738738738738737,0
18650.0,0.3963963963963964,0
18667.0,0.4144144144144144,0
18683.0,0.3963963963963964,0
18700.0,0.38738738738738737,0
18717.0,0.38738738738738737,0
18733.0,0.36036036036036034,0
18750.0,0.35135135135135137,0
18767.0,0.3333333333333333,0
18783.0,0.3333333333333333,0
18800.0,0.3153153153153153,0
18817.0,0.3063063063063063,0
18833.0,0.3153153153153153,0
18850.0,0.2972972972972973,0
18867.0,0.2972972972972973,0
18883.0,0.2882882882882883,0
18900.0,0.2882882882882883,0
18917.0,0.27927927927927926,0
18933.0,0.27927927927927926,0
18950.0,0.27927927927927926,0
18967.0,0.27927927927927926,0
18983.0,0.27927927927927926,0
19000.0,0.2702702702702703,0
19017.0,0.2702702702702703,0
19033.0,0.26126126126126126,0
19050.0,0.25225225225225223,0
19067.0,0.2702702702702703,0
19083.0,0.25225225225225223,0
19100.0,0.24324324324324326,0
19117.0,0.26126126126126126,0
19133.0,0.24324324324324326,0
19150.0,0.23423423423423423,0
19167.0,0.22522522522522523,0
19183.0,0.21621621621621623,0
19200.0,0.23423423423423423,0
19217.0,0.22522522522522523,0
19233.0,0.21621621621621623,0
19250.0,0.2072072072072072,0
19267.0,0.2072072072072072,0
19283.0,0.21621621621621623,0
19300.0,0.1891891891891892,0
19317.0,0.1891891891891892,0
19333.0,0.2072072072072072,0
19350.0,0.24324324324324326,0
19367.0,0.27927927927927926,0
19383.0,0.32432432432432434,0
19400.0,0.40540540540540543,0
19417.0,0.46846846846846846,0
19433.0,0.5225225225225225,0
19450.0,0.5765765765765766,0
19467.0,0.5945945945945946,1
19483.0,0.5855855855855856,0
19500.0,0.5585585585585585,0
19517.0,0.5315315315315315,0
19533.0,0.5315315315315315,0
19550.0,0.4954954954954955,0
19567.0,0.46846846846846846,0
19583.0,0.4594594594594595,0
19600.0,0.4594594594594595,0
19617.0,0.43243243243243246,0
19633.0,0.4144144144144144,0
19650.0,0.3963963963963964,0
19667.0,0.3963963963963964,0
19683.0,0.38738738738738737,0
19700.0,0.3963963963963964,0
19717.0,0.40540540540540543,0
19733.0,0.3963963963963964,0
19750.0,0.40540540540540543,0
19767.0,0.40540540540540543,0
19783.0,0.40540540540540543,0
19800.0,0.3963963963963964,0
19817.0,0.3783783783783784,0
19833.0,0.38738738738738737,0
19850.0,0.36936936936936937,0
19867.0,0.35135135135135137,0
19883.0,0.3333333333333333,0
19900.0,0.3153153153153153,0
19917.0,0.2972972972972973,0
19933.0,0.27927927927927926,0
19950.0,0.2702702702702703,0
19967.0,0.26126126126126126,0
19983.0,0.25225225225225223,0
20000.0,0.24324324324324326,0
20017.0,0.24324324324324326,0
20033.0,0.24324324324324326,0
20050.0,0.24324324324324326,0
20067.0,0.24324324324324326,0
20083.0,0.24324324324324326,0
20100.0,0.24324324324324326,0
20117.0,0.26126126126126126,0
20133.0,0.25225225225225223,0
20150.0,0.25225225225225223,0
20167.0,0.26126126126126126,0
20183.0,0.27927927927927926,0
20200.0,0.2702702702702703,0
20217.0,0.24324324324324326,0
20233.0,0.23423423423423423,0
20250.0,0.22522522522522523,0
20267.0,0.21621621621621623,0
20283.0,0.2072072072072072,0
20300.0,0.1981981981981982,0
20317.0,0.1981981981981982,0
20333.0,0.1891891891891892,0
20350.0,0.18018018018018017,0
20367.0,0.18018018018018017,0
20383.0,0.17117117117117117,0
20400.0,0.2072072072072072,0
20417.0,0.26126126126126126,0
20433.0,0.34234234234234234,0
20450.0,0.38738738738738737,0
20467.0,0.4594594594594595,0
20483.0,0.5315315315315315,0
20500.0,0.5495495495495496,0
20517.0,0.5675675675675675,1
20533.0,0.5675675675675675,0
20550.0,0.5675675675675675,0
20567.0,0.5405405405405406,0
20583.0,0.5135135135135135,0
20600.0,0.5045045045045045,0
20617.0,0.46846846846846846,0
20633.0,0.43243243243243246,0
20650.0,0.40540540540540543,0
20667.0,0.38738738738738737,0
20683.0,0.36936936936936937,0
20700.0,0.36936936936936937,0
20717.0,0.36936936936936937,0
20733.0,0.38738738738738737,0
20750.0,0.40540540540540543,0
20767.0,0.42342342342342343,0
20783.0,0.44144144144144143,0
20800.0,0.44144144144144143,0
20817.0,0.44144144144144143,0
20833.0,0.43243243243243246,0
20850.0,0.4144144144144144,0
20867.0,0.3963963963963964,0
20883.0,0.3783783783783784,0
20900.0,0.36036036036036034,0
20917.0,0.34234234234234234,0
20933.0,0.32432432432432434,0
20950.0,0.3063063063063063,0
20967.0,0.2972972972972973,0
20983.0,0.3063063063063063,0
21000.0,0.2972972972972973,0
21017.0,0.2882882882882883,0
21033.0,0.3063063063063063,0
21050.0,0.3063063063063063,0
21067.0,0.3063063063063063,0
21083.0,0.3063063063063063,0
21100.0,0.3063063063063063,0
21117.0,0.3063063063063063,0
21133.0,0.3063063063063063,0
21150.0,0.2972972972972973,0
21167.0,0.2972972972972973,0
21183.0,0.2882882882882883,0
21200.0,0.2882882882882883,0
21217.0,0.2972972972972973,0
21233.0,0.2882882882882883,0
21250.0,0.27927927927927926,0
21267.0,0.2702702702702703,0
21283.0,0.25225225225225223,0
21300.0,0.2702702702702703,0
21317.0,0.23423423423423423,0
21333.0,0.22522522522522523,0
21350.0,0.24324324324324326,0
21367.0,0.27927927927927926,0
21383.0,0.32432432432432434,0
21400.0,0.3783783783783784,0
21417.0,0.45045045045045046,0
21433.0,0.5135135135135135,0
21450.0,0.5945945945945946,0
21467.0,0.6216216216216216,0
21483.0,0.6396396396396397,1
21500.0,0.6306306306306306,0
21517.0,0.6126126126126126,0
21533.0,0.5945945945945946,0
21550.0,0.5675675675675675,0
21567.0,0.5405405405405406,0
21583.0,0.5135135135135135,0
21600.0,0.4864864864864865,0
21617.0,0.46846846846846846,0
21633.0,0.45045045045045046,0
21650.0,0.44144144144144143,0
21667.0,0.43243243243243246,0
21683.0,0.43243243243243246,0
21700.0,0.44144144144144143,0
21717.0,0.4594594594594595,0
21733.0,0.46846846846846846,0
21750.0,0.45045045045045046,0
21767.0,0.4594594594594595,0
21783.0,0.45045045045045046,0
21800.0,0.44144144144144143,0
21817.0,0.42342342342342343,0
21833.0,0.40540540540540543,0
21850.0,0.40540540540540543,0
21867.0,0.38738738738738737,0
21883.0,0.36036036036036034,0
21900.0,0.36036036036036034,0
21917.0,0.34234234234234234,0
21933.0,0.32432432432432434,0
21950.0,0.3153153153153153,0
21967.0,0.3063063063063063,0
21983.0,0.3063063063063063,0
22000.0,0.3063063063063063,0
22017.0,0.3063063063063063,0
22033.0,0.3063063063063063,0
22050.0,0.3063063063063063,0
22067.0,0.3063063063063063,0
22083.0,0.3063063063063063,0
22100.0,0.2972972972972973,0
22117.0,0.2972972972972973,0
22133.0,0.2882882882882883,0
22150.0,0.2882882882882883,0
22167.0,0.2972972972972973,0
22183.0,0.2882882882882883,0
22200.0,0.27927927927927926,0
22217.0,0.2972972972972973,0
22233.0,0.2882882882882883,0
22250.0,0.27927927927927926,0
22267.0,0.2702702702702703,0
22283.0,0.26126126126126126,0
22300.0,0.25225225225225223,0
22317.0,0.24324324324324326,0
22333.0,0.23423423423423423,0
22350.0,0.23423423423423423,0
22367.0,0.25225225225225223,0
22383.0,0.2882882882882883,0
22400.0,0.36036036036036034,0
22417.0,0.40540540540540543,0
22433.0,0.4774774774774775,0
22450.0,0.5495495495495496,0
22467.0,0.5945945945945946,0
22483.0,0.6216216216216216,1
22500.0,0.6126126126126126,0
22517.0,0.6126126126126126,0
22533.0,0.5945945945945946,0
22550.0,0.5765765765765766,0
22567.0,0.5495495495495496,0
22583.0,0.5315315315315315,0
22600.0,0.5045045045045045,0
22617.0,0.4864864864864865,0
22633.0,0.46846846846846846,0
22650.0,0.45045045045045046,0
22667.0,0.43243243243243246,0
22683.0,0.43243243243243246,0
22700.0,0.43243243243243246,0
22717.0,0.43243243243243246,0
22733.0,0.44144144144144143,0
22750.0,0.45045045045045046,0
22767.0,0.45045045045045046,0
22783.0,0.45045045045045046,0
22800.0,0.43243243243243246,0
22817.0,0.42342342342342343,0
22833.0,0.40540540540540543,0
22850.0,0.38738738738738737,0
22867.0,0.36936936936936937,0
22883.0,0.36036036036036034,0
22900.0,0.36036036036036034,0
22917.0,0.34234234234234234,0
22933.0,0.3333333333333333,0
22950.0,0.34234234234234234,0
22967.0,0.32432432432432434,0
22983.0,0.3153153153153153,0
23000.0,0.3063063063063063,0
23017.0,0.32432432432432434,0
23033.0,0.32432432432432434,0
23050.0,0.3153153153153153,0
23067.0,0.3153153153153153,0
23083.0,0.3153153153153153,0
23100.0,0.3063063063063063,0
23117.0,0.2972972972972973,0
23133.0,0.2972972972972973,0
23150.0,0.2882882882882883,0
23167.0,0.2972972972972973,0
23183.0,0.2882882882882883,0
23200.0,0.27927927927927926,0
23217.0,0.26126126126126126,0
23233.0,0.27927927927927926,0
23250.0,0.2702702702702703,0
23267.0,0.26126126126126126,0
23283.0,0.2702702702702703,0
23300.0,0.26126126126126126,0
23317.0,0.25225225225225223,0
23333.0,0.24324324324324326,0
23350.0,0.23423423423423423,0
23367.0,0.22522522522522523,0
23383.0,0.23423423423423423,0
23400.0,0.2702702702702703,0
23417.0,0.3153153153153153,0
23433.0,0.36036036036036034,0
23450.0,0.43243243243243246,0
23467.0,0.4864864864864865,0
23483.0,0.5225225225225225,0
23500.0,0.5405405405405406,1
23517.0,0.5315315315315315,0
23533.0,0.5225225225225225,0
23550.0,0.5045045045045045,0
23567.0,0.4774774774774775,0
23583.0,0.4594594594594595,0
23600.0,0.45045045045045046,0
23617.0,0.42342342342342343,0
23633.0,0.40540540540540543,0
23650.0,0.3783783783783784,0
23667.0,0.38738738738738737,0
23683.0,0.3783783783783784,0
23700.0,0.3783783783783784,0
23717.0,0.3783783783783784,0
23733.0,0.38738738738738737,0
23750.0,0.40540540540540543,0
23767.0,0.3963963963963964,0
23783.0,0.3963963963963964,0
23800.0,0.3963963963963964,0
23817.0,0.4144144144144144,0
23833.0,0.3963963963963964,0
23850.0,0.38738738738738737,0
23867.0,0.38738738738738737,0
23883.0,0.36936936936936937,0
23900.0,0.36036036036036034,0
23917.0,0.34234234234234234,0
23933.0,0.34234234234234234,0
23950.0,0.3333333333333333,0
23967.0,0.3153153153153153,0
23983.0,0.3063063063063063,0
24000.0,0.2972972972972973,0
24017.0,0.2972972972972973,0
24033.0,0.2702702702702703,0
24050.0,0.2702702702702703,0
24067.0,0.2702702702702703,0
24083.0,0.2972972972972973,0
24100.0,0.2882882882882883,0
24117.0,0.2882882882882883,0
24133.0,0.3063063063063063,0
24150.0,0.2972972972972973,0
24167.0,0.2882882882882883,0
24183.0,0.27927927927927926,0
24200.0,0.2702702702702703,0
24217.0,0.26126126126126126,0
24233.0,0.25225225225225223,0
24250.0,0.24324324324324326,0
24267.0,0.23423423423423423,0
24283.0,0.22522522522522523,0
24300.0,0.21621621621621623,0
24317.0,0.23423423423423423,0
24333.0,0.23423423423423423,0
24350.0,0.26126126126126126,0
24367.0,0.2972972972972973,0
24383.0,0.34234234234234234,0
24400.0,0.38738738738738737,0
24417.0,0.44144144144144143,0
24433.0,0.4864864864864865,0
24450.0,0.5225225225225225,0
24467.0,0.5315315315315315,0
24483.0,0.5405405405405406,1
24500.0,0.5315315315315315,0
24517.0,0.5045045045045045,0
24533.0,0.4864864864864865,0
24550.0,0.4774774774774775,0
24567.0,0.4774774774774775,0
24583.0,0.4594594594594595,0
24600.0,0.43243243243243246,0
24617.0,0.4144144144144144,0
24633.0,0.42342342342342343,0
24650.0,0.38738738738738737,0
24667.0,0.38738738738738737,0
24683.0,0.4144144144144144,0
24700.0,0.42342342342342343,0
24717.0,0.43243243243243246,0
24733.0,0.4144144144144144,0
24750.0,0.4144144144144144,0
24767.0,0.40540540540540543,0
24783.0,0.3963963963963964,0
24800.0,0.40540540540540543,0
24817.0,0.38738738738738737,0
24833.0,0.38738738738738737,0
24850.0,0.38738738738738737,0
24867.0,0.36936936936936937,0
24883.0,0.36036036036036034,0
24900.0,0.34234234234234234,0
24917.0,0.3333333333333333,0
24933.0,0.32432432432432434,0
24950.0,0.3153153153153153,0
24967.0,0.3063063063063063,0
24983.0,0.3063063063063063,0
25000.0,0.2972972972972973,0
25017.0,0.2972972972972973,0
25033.0,0.2972972972972973,0
25050.0,0.2972972972972973,0
25067.0,0.2882882882882883,0
25083.0,0.2882882882882883,0
25100.0,0.27927927927927926,0
25117.0,0.27927927927927926,0
25133.0,0.2702702702702703,0
25150.0,0.26126126126126126,0
25167.0,0.25225225225225223,0
25183.0,0.24324324324324326,0
25200.0,0.23423423423423423,0
25217.0,0.22522522522522523,0
25233.0,0.22522522522522523,0
25250.0,0.21621621621621623,0
25267.0,0.23423423423423423,0
25283.0,0.22522522522522523,0
25300.0,0.22522522522522523,0
25317.0,0.24324324324324326,0
25333.0,0.23423423423423423,0
25350.0,0.23423423423423423,0
25367.0,0.22522522522522523,0
25383.0,0.24324324324324326,0
25400.0,0.24324324324324326,0
25417.0,0.23423423423423423,0
25433.0,0.26126126126126126,0
25450.0,0.2702702702702703,0
25467.0,0.2882882882882883,0
25483.0,0.3333333333333333,0
25500.0,0.3783783783783784,0
25517.0,0.44144144144144143,0
25533.0,0.5045045045045045,0
25550.0,0.5495495495495496,0
25567.0,0.5855855855855856,0
25583.0,0.5945945945945946,1
25600.0,0.5855855855855856,0
25617.0,0.5675675675675675,0
25633.0,0.5405405405405406,0
25650.0,0.5225225225225225,0
25667.0,0.4954954954954955,0
25683.0,0.4774774774774775,0
25700.0,0.4594594594594595,0
25717.0,0.45045045045045046,0
25733.0,0.43243243243243246,0
25750.0,0.42342342342342343,0
25767.0,0.4144144144144144,0
25783.0,0.4144144144144144,0
25800.0,0.42342342342342343,0
25817.0,0.42342342342342343,0
25833.0,0.43243243243243246,0
25850.0,0.43243243243243246,0
25867.0,0.40540540540540543,0
25883.0,0.3963963963963964,0
25900.0,0.38738738738738737,0
25917.0,0.36936936936936937,0
25933.0,0.36036036036036034,0
25950.0,0.34234234234234234,0
25967.0,0.35135135135135137,0
25983.0,0.3333333333333333,0
26000.0,0.3153153153153153,0
26017.0,0.3063063063063063,0
26033.0,0.2972972972972973,0
26050.0,0.2882882882882883,0
26067.0,0.26126126126126126,0
26083.0,0.26126126126126126,0
26100.0,0.27927927927927926,0
26117.0,0.27927927927927926,0
26133.0,0.27927927927927926,0
26150.0,0.27927927927927926,0
26167.0,0.2972972972972973,0
26183.0,0.2972972972972973,0
26200.0,0.2882882882882883,0
26217.0,0.27927927927927926,0
26233.0,0.2702702702702703,0
26250.0,0.2882882882882883,0
26267.0,0.27927927927927926,0
26283.0,0.26126126126126126,0
26300.0,0.25225225225225223,0
26317.0,0.24324324324324326,0
26333.0,0.23423423423423423,0
26350.0,0.23423423423423423,0
26367.0,0.22522522522522523,0
26383.0,0.21621621621621623,0
26400.0,0.2072072072072072,0
26417.0,0.2072072072072072,0
26433.0,0.22522522522522523,0
26450.0,0.21621621621621623,0
26467.0,0.21621621621621623,0
26483.0,0.23423423423423423,0
26500.0,0.22522522522522523,0
26517.0,0.21621621621621623,0
26533.0,0.21621621621621623,0
26550.0,0.21621621621621623,0
26567.0,0.24324324324324326,0
26583.0,0.26126126126126126,0
26600.0,0.32432432432432434,0
26617.0,0.36936936936936937,0
26633.0,0.43243243243243246,0
26650.0,0.4954954954954955,0
26667.0,0.5225225225225225,0
26683.0,0.5405405405405406,1
26700.0,0.5405405405405406,0
26717.0,0.5225225225225225,0
26733.0,0.4954954954954955,0
26750.0,0.46846846846846846,0
26767.0,0.44144144144144143,0
26783.0,0.4144144144144144,0
26800.0,0.3963963963963964,0
26817.0,0.3963963963963964,0
26833.0,0.38738738738738737,0
26850.0,0.36936936936936937,0
26867.0,0.36936936936936937,0
26883.0,0.36936936936936937,0
26900.0,0.36936936936936937,0
26917.0,0.3783783783783784,0
26933.0,0.38738738738738737,0
26950.0,0.3963963963963964,0
26967.0,0.3963963963963964,0
26983.0,0.38738738738738737,0
27000.0,0.3783783783783784,0
27017.0,0.36036036036036034,0
27033.0,0.35135135135135137,0
27050.0,0.34234234234234234,0
27067.0,0.34234234234234234,0
27083.0,0.32432432432432434,0
27100.0,0.3063063063063063,0
27117.0,0.2972972972972973,0
27133.0,0.27927927927927926,0
27150.0,0.2702702702702703,0
27167.0,0.2702702702702703,0
27183.0,0.26126126126126126,0
27200.0,0.26126126126126126,0
27217.0,0.26126126126126126,0
27233.0,0.25225225225225223,0
27250.0,0.25225225225225223,0
27267.0,0.25225225225225223,0
27283.0,0.27927927927927926,0
27300.0,0.2882882882882883,0
27317.0,0.2882882882882883,0
27333.0,0.27927927927927926,0
27350.0,0.2882882882882883,0
27367.0,0.2882882882882883,0
27383.0,0.25225225225225223,0
27400.0,0.24324324324324326,0
27417.0,0.23423423423423423,0
27433.0,0.25225225225225223,0
27450.0,0.24324324324324326,0
27467.0,0.23423423423423423,0
27483.0,0.22522522522522523,0
27500.0,0.21621621621621623,0
27517.0,0.2072072072072072,0
27533.0,0.18018018018018017,0
27550.0,0.18018018018018017,0
27567.0,0.1891891891891892,0
27583.0,0.21621621621621623,0
27600.0,0.24324324324324326,0
27617.0,0.3153153153153153,0
27633.0,0.3783783783783784,0
27650.0,0.43243243243243246,0
27667.0,0.4954954954954955,0
27683.0,0.5405405405405406,0
27700.0,0.5585585585585585,1
27717.0,0.5495495495495496,0
27733.0,0.5315315315315315,0
27750.0,0.5045045045045045,0
27767.0,0.4774774774774775,0
27783.0,0.45045045045045046,0
27800.0,0.42342342342342343,0
27817.0,0.3963963963963964,0
27833.0,0.3783783783783784,0
27850.0,0.38738738738738737,0
27867.0,0.36936936936936937,0
27883.0,0.36036036036036034,0
27900.0,0.36036036036036034,0
27917.0,0.36936936936936937,0
27933.0,0.3783783783783784,0
27950.0,0.36036036036036034,0
27967.0,0.36936936936936937,0
27983.0,0.36936936936936937,0
28000.0,0.36936936936936937,0
28017.0,0.36036036036036034,0
28033.0,0.35135135135135137,0
28050.0,0.3333333333333333,0
28067.0,0.3153153153153153,0
28083.0,0.2972972972972973,0
28100.0,0.3063063063063063,0
28117.0,0.2882882882882883,0
28133.0,0.2702702702702703,0
28150.0,0.2882882882882883,0
28167.0,0.27927927927927926,0
28183.0,0.2702702702702703,0
28200.0,0.26126126126126126,0
28217.0,0.26126126126126126,0
28233.0,0.25225225225225223,0
28250.0,0.25225225225225223,0
28267.0,0.25225225225225223,0
28283.0,0.25225225225225223,0
28300.0,0.25225225225225223,0
28317.0,0.27927927927927926,0
28333.0,0.2702702702702703,0
28350.0,0.26126126126126126,0
28367.0,0.25225225225225223,0
28383.0,0.24324324324324326,0
28400.0,0.23423423423423423,0
28417.0,0.22522522522522523,0
28433.0,0.22522522522522523,0
28450.0,0.21621621621621623,0
28467.0,0.23423423423423423,0
28483.0,0.22522522522522523,0
28500.0,0.21621621621621623,0
28517.0,0.2072072072072072,0
28533.0,0.22522522522522523,0
28550.0,0.21621621621621623,0
28567.0,0.2072072072072072,0
28583.0,0.22522522522522523,0
28600.0,0.21621621621621623,0
28617.0,0.21621621621621623,0
28633.0,0.1981981981981982,0
28650.0,0.23423423423423423,0
28667.0,0.26126126126126126,0
28683.0,0.3063063063063063,0
28700.0,0.36036036036036034,0
28717.0,0.4144144144144144,0
28733.0,0.4864864864864865,0
28750.0,0.5045045045045045,0
28767.0,0.5225225225225225,1
28783.0,0.5135135135135135,0
28800.0,0.5225225225225225,0
28817.0,0.5135135135135135,0
28833.0,0.4864864864864865,0
28850.0,0.4774774774774775,0
28867.0,0.4774774774774775,0
28883.0,0.45045045045045046,0
28900.0,0.40540540540540543,0
28917.0,0.38738738738738737,0
28933.0,0.3783783783783784,0
28950.0,0.35135135135135137,0
28967.0,0.35135135135135137,0
28983.0,0.35135135135135137,0
29000.0,0.36036036036036034,0
29017.0,0.34234234234234234,0
29033.0,0.35135135135135137,0
29050.0,0.36936936936936937,0
29067.0,0.35135135135135137,0
29083.0,0.34234234234234234,0
29100.0,0.35135135135135137,0
29117.0,0.36036036036036034,0
29133.0,0.34234234234234234,0
29150.0,0.2972972972972973,0
29167.0,0.3063063063063063,0
29183.0,0.2882882882882883,0
29200.0,0.27927927927927926,0
29217.0,0.26126126126126126,0
29233.0,0.25225225225225223,0
29250.0,0.26126126126126126,0
29267.0,0.25225225225225223,0
29283.0,0.25225225225225223,0
29300.0,0.24324324324324326,0
29317.0,0.24324324324324326,0
29333.0,0.24324324324324326,0
29350.0,0.24324324324324326,0
29367.0,0.24324324324324326,0
29383.0,0.23423423423423423,0
29400.0,0.23423423423423423,0
29417.0,0.22522522522522523,0
29433.0,0.24324324324324326,0
29450.0,0.23423423423423423,0
29467.0,0.22522522522522523,0
29483.0,0.24324324324324326,0
29500.0,0.23423423423423423,0
29517.0,0.22522522522522523,0
29533.0,0.21621621621621623,0
29550.0,0.2072072072072072,0
29567.0,0.1981981981981982,0
29583.0,0.1891891891891892,0
29600.0,0.18018018018018017,0
29617.0,0.18018018018018017,0
29633.0,0.17117117117117117,0
29650.0,0.16216216216216217,0
29667.0,0.17117117117117117,0
29683.0,0.1891891891891892,0
29700.0,0.22522522522522523,0
29717.0,0.2882882882882883,0
29733.0,0.3333333333333333,0
29750.0,0.36936936936936937,0
29767.0,0.44144144144144143,0
29783.0,0.4594594594594595,1
29800.0,0.4594594594594595,0
29817.0,0.45045045045045046,0
29833.0,0.43243243243243246,0
29850.0,0.4144144144144144,0
29867.0,0.38738738738738737,0
29883.0,0.3783783783783784,0
29900.0,0.36036036036036034,0
29917.0,0.34234234234234234,0
29933.0,0.34234234234234234,0
29950.0,0.35135135135135137,0
29967.0,0.3333333333333333,0
29983.0,0.32432432432432434,0
30000.0,0.34234234234234234,0
30017.0,0.34234234234234234,0
30033.0,0.35135135135135137,0
30050.0,0.36036036036036034,0
30067.0,0.36036036036036034,0
30083.0,0.36936936936936937,0
30100.0,0.36936936936936937,0
30117.0,0.36036036036036034,0
30133.0,0.35135135135135137,0
30150.0,0.34234234234234234,0
30167.0,0.32432432432432434,0
30183.0,0.3063063063063063,0
30200.0,0.2882882882882883,0
30217.0,0.2702702702702703,0
30233.0,0.26126126126126126,0
30250.0,0.24324324324324326,0
30267.0,0.23423423423423423,0
30283.0,0.22522522522522523,0
30300.0,0.21621621621621623,0
30317.0,0.21621621621621623,0
30333.0,0.2072072072072072,0
30350.0,0.2072072072072072,0
30367.0,0.2072072072072072,0
30383.0,0.21621621621621623,0
30400.0,0.21621621621621623,0
30417.0,0.21621621621621623,0
30433.0,0.21621621621621623,0
30450.0,0.2072072072072072,0
30467.0,0.2072072072072072,0
30483.0,0.1981981981981982,0
30500.0,0.1981981981981982,0
30517.0,0.1891891891891892,0
30533.0,0.1891891891891892,0
30550.0,0.18018018018018017,0
30567.0,0.17117117117117117,0
30583.0,0.17117117117117117,0
30600.0,0.16216216216216217,0
30617.0,0.15315315315315314,0
30633.0,0.15315315315315314,0
30650.0,0.15315315315315314,0
30667.0,0.18018018018018017,0
30683.0,0.22522522522522523,0
30700.0,0.2882882882882883,0
30717.0,0.36036036036036034,0
30733.0,0.42342342342342343,0
30750.0,0.4864864864864865,0
30767.0,0.5225225225225225,0
30783.0,0.5405405405405406,1
30800.0,0.5315315315315315,0
30817.0,0.5045045045045045,0
30833.0,0.4774774774774775,0
30850.0,0.44144144144144143,0
30867.0,0.4144144144144144,0
30883.0,0.38738738738738737,0
30900.0,0.36036036036036034,0
30917.0,0.35135135135135137,0
30933.0,0.3333333333333333,0
30950.0,0.3153153153153153,0
30967.0,0.3063063063063063,0
30983.0,0.3063063063063063,0
31000.0,0.3063063063063063,0
31017.0,0.3153153153153153,0
31033.0,0.3333333333333333,0
31050.0,0.34234234234234234,0
31067.0,0.34234234234234234,0
31083.0,0.34234234234234234,0
31100.0,0.34234234234234234,0
31117.0,0.32432432432432434,0
31133.0,0.3153153153153153,0
31150.0,0.2972972972972973,0
31167.0,0.27927927927927926,0
31183.0,0.2702702702702703,0
31200.0,0.25225225225225223,0
31217.0,0.24324324324324326,0
31233.0,0.22522522522522523,0
31250.0,0.22522522522522523,0
31267.0,0.21621621621621623,0
31283.0,0.2072072072072072,0
31300.0,0.2072072072072072,0
31317.0,0.2072072072072072,0
31333.0,0.2072072072072072,0
31350.0,0.21621621621621623,0
31367.0,0.21621621621621623,0
31383.0,0.21621621621621623,0
31400.0,0.21621621621621623,0
31417.0,0.21621621621621623,0
31433.0,0.2072072072072072,0
31450.0,0.2072072072072072,0
31467.0,0.2072072072072072,0
31483.0,0.1981981981981982,0
31500.0,0.1891891891891892,0
31517.0,0.1891891891891892,0
31533.0,0.18018018018018017,0
31550.0,0.18018018018018017,0
31567.0,0.17117117117117117,0
31583.0,0.16216216216216217,0
31600.0,0.16216216216216217,0
31617.0,0.15315315315315314,0
31633.0,0.15315315315315314,0
31650.0,0.15315315315315314,0
31667.0,0.18018018018018017,0
31683.0,0.22522522522522523,0
31700.0,0.2882882882882883,0
31717.0,0.36036036036036034,0
31733.0,0.43243243243243246,0
31750.0,0.4954954954954955,0
31767.0,0.5405405405405406,0
31783.0,0.5585585585585585,1
31800.0,0.5495495495495496,0
31817.0,0.5315315315315315,0
31833.0,0.4954954954954955,0
31850.0,0.46846846846846846,0
31867.0,0.43243243243243246,0
31883.0,0.40540540540540543,0
31900.0,0.3783783783783784,0
31917.0,0.36036036036036034,0
31933.0,0.34234234234234234,0
31950.0,0.32432432432432434,0
31967.0,0.3153153153153153,0
31983.0,0.3153153153153153,0
32000.0,0.3153153153153153,0
32017.000000000004,0.32432432432432434,0
32033.0,0.3333333333333333,0
32049.999999999996,0.34234234234234234,0
32067.0,0.35135135135135137,0
32083.0,0.35135135135135137,0
32100.0,0.35135135135135137,0
32116.999999999996,0.34234234234234234,0
32133.000000000004,0.32432432432432434,0
32150.0,0.3153153153153153,0
32167.0,0.2972972972972973,0
32183.0,0.2882882882882883,0
32200.000000000004,0.2702702702702703,0
32217.0,0.26126126126126126,0
32232.999999999996,0.24324324324324326,0
32250.0,0.24324324324324326,0
32267.000000000004,0.23423423423423423,0
32283.0,0.22522522522522523,0
32299.999999999996,0.22522522522522523,0
32317.0,0.22522522522522523,0
32333.0,0.22522522522522523,0
32350.0,0.22522522522522523,0
32366.999999999996,0.23423423423423423,0
32383.000000000004,0.23423423423423423,0
32400.0,0.23423423423423423,0
32417.0,0.23423423423423423,0
32433.0,0.23423423423423423,0
32450.000000000004,0.23423423423423423,0
32467.0,0.23423423423423423,0
32482.999999999996,0.22522522522522523,0
32500.0,0.22522522522522523,0
32517.000000000004,0.21621621621621623,0
32533.0,0.21621621621621623,0
32549.999999999996,0.2072072072072072,0
32567.0,0.2072072072072072,0
32583.0,0.1981981981981982,0
32600.0,0.1981981981981982,0
32616.999999999996,0.2072072072072072,0
32633.000000000004,0.24324324324324326,0
32650.0,0.2972972972972973,0
32667.0,0.36036036036036034,0
32683.0,0.42342342342342343,0
32700.000000000004,0.4864864864864865,0
32717.0,0.5315315315315315,0
32732.999999999996,0.5585585585585585,1
32750.0,0.5585585585585585,0
32767.000000000004,0.5405405405405406,0
32783.0,0.5135135135135135,0
32800.0,0.4864864864864865,0
32817.0,0.4594594594594595,0
32833.0,0.42342342342342343,0
32850.0,0.3963963963963964,0
32867.0,0.36936936936936937,0
32883.0,0.35135135135135137,0
32900.0,0.3333333333333333,0
32917.0,0.32432432432432434,0
32933.0,0.32432432432432434,0
32950.0,0.3333333333333333,0
32967.0,0.34234234234234234,0
32983.0,0.36036036036036034,0
33000.0,0.36936936936936937,0
33017.0,0.3783783783783784,0
33033.0,0.3783783783783784,0
33050.0,0.36936936936936937,0
33067.0,0.36036036036036034,0
33083.0,0.36036036036036034,0
33100.0,0.34234234234234234,0
33117.0,0.32432432432432434,0
33133.0,0.3063063063063063,0
33150.0,0.2972972972972973,0
33167.0,0.27927927927927926,0
33183.0,0.2702702702702703,0
33200.0,0.26126126126126126,0
33217.0,0.25225225225225223,0
33233.0,0.24324324324324326,0
33250.0,0.24324324324324326,0
33267.0,0.24324324324324326,0
33283.0,0.24324324324324326,0
33300.0,0.24324324324324326,0
33317.0,0.25225225225225223,0
33333.0,0.25225225225225223,0
33350.0,0.25225225225225223,0
33367.0,0.25225225225225223,0
33383.0,0.25225225225225223,0
33400.0,0.25225225225225223,0
33417.0,0.25225225225225223,0
33433.0,0.24324324324324326,0
33450.0,0.24324324324324326,0
33467.0,0.23423423423423423,0
33483.0,0.23423423423423423,0
33500.0,0.22522522522522523,0
33517.0,0.21621621621621623,0
33533.0,0.21621621621621623,0
33550.0,0.21621621621621623,0
33567.0,0.22522522522522523,0
33583.0,0.26126126126126126,0
33600.0,0.3153153153153153,0
33617.0,0.3783783783783784,0
33633.0,0.4594594594594595,0
33650.0,0.5315315315315315,0
33667.0,0.5945945945945946,0
33683.0,0.6216216216216216,0
33700.0,0.6306306306306306,1
33717.0,0.6216216216216216,0
33733.0,0.5945945945945946,0
33750.0,0.5585585585585585,0
33767.0,0.5315315315315315,0
33783.0,0.5045045045045045,0
33800.0,0.4774774774774775,0
33817.0,0.45045045045045046,0
33833.0,0.43243243243243246,0
33850.0,0.4144144144144144,0
33867.0,0.3963963963963964,0
33883.0,0.3963963963963964,0
33900.0,0.38738738738738737,0
33917.0,0.3963963963963964,0
33933.0,0.40540540540540543,0
33950.0,0.4144144144144144,0
33967.0,0.42342342342342343,0
33983.0,0.42342342342342343,0
34000.0,0.42342342342342343,0
34017.0,0.4144144144144144,0
34033.0,0.40540540540540543,0
34050.0,0.38738738738738737,0
34067.0,0.36936936936936937,0
34083.0,0.36036036036036034,0
34100.0,0.35135135135135137,0
34117.0,0.3333333333333333,0
34133.0,0.3153153153153153,0
34150.0,0.3063063063063063,0
34167.0,0.2972972972972973,0
34183.0,0.2882882882882883,0
34200.0,0.27927927927927926,0
34217.0,0.27927927927927926,0
34233.0,0.27927927927927926,0
34250.0,0.2702702702702703,0
34267.0,0.2702702702702703,0
34283.0,0.2702702702702703,0
34300.0,0.26126126126126126,0
34317.0,0.26126126126126126,0
34333.0,0.25225225225225223,0
34350.0,0.24324324324324326,0
34367.0,0.24324324324324326,0
34383.0,0.23423423423423423,0
34400.0,0.22522522522522523,0
34417.0,0.21621621621621623,0
34433.0,0.2072072072072072,0
34450.0,0.1981981981981982,0
34467.0,0.1891891891891892,0
34483.0,0.1891891891891892,0
34500.0,0.18018018018018017,0
34517.0,0.18018018018018017,0
34533.0,0.17117117117117117,0
34550.0,0.1891891891891892,0
34567.0,0.22522522522522523,0
34583.0,0.27927927927927926,0
34600.0,0.35135135135135137,0
34617.0,0.42342342342342343,0
34633.0,0.5045045045045045,0
34650.0,0.5675675675675675,0
34667.0,0.6036036036036037,0
34683.0,0.6126126126126126,1
34700.0,0.6036036036036037,0
34717.0,0.5855855855855856,0
34733.0,0.5585585585585585,0
34750.0,0.5315315315315315,0
34767.0,0.5045045045045045,0
34783.0,0.4774774774774775,0
34800.0,0.45045045045045046,0
34817.0,0.43243243243243246,0
34833.0,0.42342342342342343,0
34850.0,0.4144144144144144,0
34867.0,0.40540540540540543,0
34883.0,0.4144144144144144,0
34900.0,0.42342342342342343,0
34917.0,0.44144144144144143,0
34933.0,0.45045045045045046,0
34950.0,0.4594594594594595,0
34967.0,0.46846846846846846,0
34983.0,0.46846846846846846,0
35000.0,0.4594594594594595,0
35017.0,0.44144144144144143,0
35033.0,0.43243243243243246,0
35050.0,0.4144144144144144,0
35067.0,0.3963963963963964,0
35083.0,0.3783783783783784,0
35100.0,0.36036036036036034,0
35117.0,0.35135135135135137,0
35133.0,0.34234234234234234,0
35150.0,0.32432432432432434,0
35167.0,0.32432432432432434,0
35183.0,0.3153153153153153,0
35200.0,0.3153153153153153,0
35217.0,0.3063063063063063,0
35233.0,0.3063063063063063,0
35250.0,0.3063063063063063,0
35267.0,0.3063063063063063,0
35283.0,0.3063063063063063,0
35300.0,0.3063063063063063,0
35317.0,0.2972972972972973,0
35333.0,0.2972972972972973,0
35350.0,0.2882882882882883,0
35367.0,0.27927927927927926,0
35383.0,0.2702702702702703,0
35400.0,0.26126126126126126,0
35417.0,0.25225225225225223,0
35433.0,0.2702702702702703,0
35450.0,0.3063063063063063,0
35467.0,0.36036036036036034,0
35483.0,0.42342342342342343,0
35500.0,0.4954954954954955,0
35517.0,0.5585585585585585,0
35533.0,0.6126126126126126,0
35550.0,0.6396396396396397,0
35567.0,0.6486486486486487,1
35583.0,0.6396396396396397,0
35600.0,0.6216216216216216,0
35617.0,0.5945945945945946,0
35633.0,0.5765765765765766,0
35650.0,0.5495495495495496,0
35667.0,0.5225225225225225,0
35683.0,0.5045045045045045,0
35700.0,0.4774774774774775,0
35717.0,0.4594594594594595,0
35733.0,0.45045045045045046,0
35750.0,0.44144144144144143,0
35767.0,0.44144144144144143,0
35783.0,0.45045045045045046,0
35800.0,0.4594594594594595,0
35817.0,0.46846846846846846,0
35833.0,0.46846846846846846,0
35850.0,0.46846846846846846,0
35867.0,0.46846846846846846,0
35883.0,0.4594594594594595,0
35900.0,0.44144144144144143,0
35917.0,0.43243243243243246,0
35933.0,0.4144144144144144,0
35950.0,0.40540540540540543,0
35967.0,0.38738738738738737,0
35983.0,0.36936936936936937,0
36000.0,0.36036036036036034,0
36017.0,0.35135135135135137,0
36033.0,0.34234234234234234,0
36050.0,0.3333333333333333,0
36067.0,0.32432432432432434,0
36083.0,0.3153153153153153,0
36100.0,0.3063063063063063,0
36117.0,0.3063063063063063,0
36133.0,0.3063063063063063,0
36150.0,0.2972972972972973,0
36167.0,0.2972972972972973,0
36183.0,0.2972972972972973,0
36200.0,0.2882882882882883,0
36217.0,0.2882882882882883,0
36233.0,0.27927927927927926,0
36250.0,0.2702702702702703,0
36267.0,0.26126126126126126,0
36283.0,0.25225225225225223,0
36300.0,0.24324324324324326,0
36317.0,0.23423423423423423,0
36333.0,0.23423423423423423,0
36350.0,0.25225225225225223,0
36367.0,0.2882882882882883,0
36383.0,0.34234234234234234,0
36400.0,0.40540540540540543,0
36417.0,0.4864864864864865,0
36433.0,0.5585585585585585,0
36450.0,0.6216216216216216,0
36467.0,0.6576576576576577,0
36483.0,0.6666666666666666,1
36500.0,0.6666666666666666,0
36517.0,0.6576576576576577,0
36533.0,0.6396396396396397,0
36550.0,0.6126126126126126,0
36567.0,0.5945945945945946,0
36583.0,0.5765765765765766,0
36600.0,0.5495495495495496,0
36617.0,0.5315315315315315,0
36633.0,0.5135135135135135,0
36650.0,0.5045045045045045,0
36667.0,0.4954954954954955,0
36683.0,0.4864864864864865,0
36700.0,0.4954954954954955,0
36717.0,0.4954954954954955,0
36733.0,0.4954954954954955,0
36750.0,0.4954954954954955,0
36767.0,0.4954954954954955,0
36783.0,0.4864864864864865,0
36800.0,0.46846846846846846,0
36817.0,0.4594594594594595,0
36833.0,0.43243243243243246,0
36850.0,0.4144144144144144,0
36867.0,0.38738738738738737,0
36883.0,0.36936936936936937,0
36900.0,0.36036036036036034,0
36917.0,0.34234234234234234,0
36933.0,0.3333333333333333,0
36950.0,0.3153153153153153,0
36967.0,0.3063063063063063,0
36983.0,0.3063063063063063,0
37000.0,0.2972972972972973,0
37017.0,0.2972972972972973,0
37033.0,0.2972972972972973,0
37050.0,0.2882882882882883,0
37067.0,0.2882882882882883,0
37083.0,0.2882882882882883,0
37100.0,0.2882882882882883,0
37117.0,0.2882882882882883,0
37133.0,0.2882882882882883,0
37150.0,0.27927927927927926,0
37167.0,0.27927927927927926,0
37183.0,0.2702702702702703,0
37200.0,0.26126126126126126,0
37217.0,0.26126126126126126,0
37233.0,0.24324324324324326,0
37250.0,0.23423423423423423,0
37267.0,0.23423423423423423,0
37283.0,0.24324324324324326,0
37300.0,0.2702702702702703,0
37317.0,0.32432432432432434,0
37333.0,0.3783783783783784,0
37350.0,0.4594594594594595,0
37367.0,0.5405405405405406,0
37383.0,0.6036036036036037,0
37400.0,0.6396396396396397,0
37417.0,0.6576576576576577,1
37433.0,0.6576576576576577,0
37450.0,0.6396396396396397,0
37467.0,0.6126126126126126,0
37483.0,0.5855855855855856,0
37500.0,0.5675675675675675,0
37517.0,0.5405405405405406,0
37533.0,0.5225225225225225,0
37550.0,0.5045045045045045,0
37567.0,0.4864864864864865,0
37583.0,0.4774774774774775,0
37600.0,0.4774774774774775,0
37617.0,0.4774774774774775,0
37633.0,0.4864864864864865,0
37650.0,0.4954954954954955,0
37667.0,0.4954954954954955,0
37683.0,0.5045045045045045,0
37700.0,0.5045045045045045,0
37717.0,0.4954954954954955,0
37733.0,0.4774774774774775,0
37750.0,0.4594594594594595,0
37767.0,0.44144144144144143,0
37783.0,0.4144144144144144,0
37800.0,0.38738738738738737,0
37817.0,0.36936936936936937,0
37833.0,0.35135135135135137,0
37850.0,0.3333333333333333,0
37867.0,0.3153153153153153,0
37883.0,0.2972972972972973,0
37900.0,0.2882882882882883,0
37917.0,0.2882882882882883,0
37933.0,0.27927927927927926,0
37950.0,0.27927927927927926,0
37967.0,0.27927927927927926,0
37983.0,0.27927927927927926,0
38000.0,0.27927927927927926,0
38017.0,0.27927927927927926,0
38033.0,0.27927927927927926,0
38050.0,0.27927927927927926,0
38067.0,0.2702702702702703,0
38083.0,0.2702702702702703,0
38100.0,0.26126126126126126,0
38117.0,0.25225225225225223,0
38133.0,0.24324324324324326,0
38150.0,0.23423423423423423,0
38167.0,0.22522522522522523,0
38183.0,0.21621621621621623,0
38200.0,0.2072072072072072,0
38217.0,0.1981981981981982,0
38233.0,0.1981981981981982,0
38250.0,0.2072072072072072,0
38267.0,0.25225225225225223,0
38283.0,0.3063063063063063,0
38300.0,0.36936936936936937,0
38317.0,0.44144144144144143,0
38333.0,0.5225225225225225,0
38350.0,0.5765765765765766,0
38367.0,0.6036036036036037,0
38383.0,0.6126126126126126,1
38400.0,0.6036036036036037,0
38417.0,0.5765765765765766,0
38433.0,0.5495495495495496,0
38450.0,0.5225225225225225,0
38467.0,0.5045045045045045,0
38483.0,0.4774774774774775,0
38500.0,0.4594594594594595,0
38517.0,0.44144144144144143,0
38533.0,0.42342342342342343,0
38550.0,0.4144144144144144,0
38567.0,0.40540540540540543,0
38583.0,0.40540540540540543,0
38600.0,0.4144144144144144,0
38617.0,0.4144144144144144,0
38633.0,0.42342342342342343,0
38650.0,0.42342342342342343,0
38667.0,0.4144144144144144,0
38683.0,0.40540540540540543,0
38700.0,0.38738738738738737,0
38717.0,0.36936936936936937,0
38733.0,0.35135135135135137,0
38750.0,0.3333333333333333,0
38767.0,0.3153153153153153,0
38783.0,0.2972972972972973,0
38800.0,0.2882882882882883,0
38817.0,0.2702702702702703,0
38833.0,0.26126126126126126,0
38850.0,0.25225225225225223,0
38867.0,0.25225225225225223,0
38883.0,0.24324324324324326,0
38900.0,0.24324324324324326,0
38917.0,0.24324324324324326,0
38933.0,0.24324324324324326,0
38950.0,0.24324324324324326,0
38967.0,0.24324324324324326,0
38983.0,0.24324324324324326,0
39000.0,0.23423423423423423,0
39017.0,0.23423423423423423,0
39033.0,0.22522522522522523,0
39050.0,0.22522522522522523,0
39067.0,0.21621621621621623,0
39083.0,0.21621621621621623,0
39100.0,0.2072072072072072,0
39117.0,0.1981981981981982,0
39133.0,0.1891891891891892,0
39150.0,0.18018018018018017,0
39167.0,0.18018018018018017,0
39183.0,0.17117117117117117,0
39200.0,0.17117117117117117,0
39217.0,0.17117117117117117,0
39233.0,0.17117117117117117,0
39250.0,0.1981981981981982,0
39267.0,0.24324324324324326,0
39283.0,0.2972972972972973,0
39300.0,0.36036036036036034,0
39317.0,0.43243243243243246,0
39333.0,0.4954954954954955,0
39350.0,0.5135135135135135,0
39367.0,0.5315315315315315,1
39383.0,0.5315315315315315,0
39400.0,0.4954954954954955,0
39417.0,0.46846846846846846,0
39433.0,0.44144144144144143,0
39450.0,0.42342342342342343,0
39467.0,0.3963963963963964,0
39483.0,0.36936936936936937,0
39500.0,0.36936936936936937,0
39517.0,0.36036036036036034,0
39533.0,0.35135135135135137,0
39550.0,0.36036036036036034,0
39567.0,0.36036036036036034,0
39583.0,0.36936936936936937,0
39600.0,0.3783783783783784,0
39617.0,0.38738738738738737,0
39633.0,0.3963963963963964,0
39650.0,0.3963963963963964,0
39667.0,0.38738738738738737,0
39683.0,0.3783783783783784,0
39700.0,0.36036036036036034,0
39717.0,0.36036036036036034,0
39733.0,0.34234234234234234,0
39750.0,0.32432432432432434,0
39767.0,0.3063063063063063,0
39783.0,0.2882882882882883,0
39800.0,0.27927927927927926,0
39817.0,0.2702702702702703,0
39833.0,0.25225225225225223,0
39850.0,0.25225225225225223,0
39867.0,0.24324324324324326,0
39883.0,0.24324324324324326,0
39900.0,0.23423423423423423,0
39917.0,0.23423423423423423,0
39933.0,0.23423423423423423,0
39950.0,0.23423423423423423,0
39967.0,0.23423423423423423,0
39983.0,0.24324324324324326,0
40000.0,0.24324324324324326,0
40017.0,0.24324324324324326,0
40033.0,0.24324324324324326,0
40050.0,0.24324324324324326,0
40067.0,0.24324324324324326,0
40083.0,0.23423423423423423,0
40100.0,0.23423423423423423,0
40117.0,0.22522522522522523,0
40133.0,0.21621621621621623,0
40150.0,0.21621621621621623,0
40167.0,0.2072072072072072,0
40183.0,0.2072072072072072,0
40200.0,0.22522522522522523,0
40217.0,0.26126126126126126,0
40233.0,0.3153153153153153,0
40250.0,0.36936936936936937,0
40267.0,0.42342342342342343,0
40283.0,0.4774774774774775,0
40300.0,0.5135135135135135,0
40317.0,0.5315315315315315,1
40333.0,0.5225225225225225,0
40350.0,0.5045045045045045,0
40367.0,0.4774774774774775,0
40383.0,0.45045045045045046,0
40400.0,0.42342342342342343,0
40417.0,0.3963963963963964,0
40433.0,0.36936936936936937,0
40450.0,0.36036036036036034,0
40467.0,0.3333333333333333,0
40483.0,0.32432432432432434,0
40500.0,0.3153153153153153,0
40517.0,0.3153153153153153,0
40533.0,0.32432432432432434,0
40550.0,0.34234234234234234,0
40567.0,0.35135135135135137,0
40583.0,0.36036036036036034,0
40600.0,0.36036036036036034,0
40617.0,0.35135135135135137,0
40633.0,0.34234234234234234,0
40650.0,0.3333333333333333,0
40667.0,0.3153153153153153,0
40683.0,0.2972972972972973,0
40700.0,0.2882882882882883,0
40717.0,0.2702702702702703,0
40733.0,0.26126126126126126,0
40750.0,0.24324324324324326,0
40767.0,0.23423423423423423,0
40783.0,0.22522522522522523,0
40800.0,0.22522522522522523,0
40817.0,0.21621621621621623,0
40833.0,0.21621621621621623,0
40850.0,0.21621621621621623,0
40867.0,0.21621621621621623,0
40883.0,0.21621621621621623,0
40900.0,0.22522522522522523,0
40917.0,0.22522522522522523,0
40933.0,0.22522522522522523,0
40950.0,0.22522522522522523,0
40967.0,0.22522522522522523,0
40983.0,0.21621621621621623,0
41000.0,0.21621621621621623,0
41017.0,0.2072072072072072,0
41033.0,0.2072072072072072,0
41050.0,0.1981981981981982,0
41067.0,0.1891891891891892,0
41083.0,0.1891891891891892,0
41100.0,0.1891891891891892,0
41117.0,0.1981981981981982,0
41133.0,0.23423423423423423,0
41150.0,0.2882882882882883,0
41167.0,0.35135135135135137,0
41183.0,0.4144144144144144,0
41200.0,0.4864864864864865,0
41217.0,0.5405405405405406,0
41233.0,0.5675675675675675,1
41250.0,0.5675675675675675,0
41267.0,0.5495495495495496,0
41283.0,0.5225225225225225,0
41300.0,0.4954954954954955,0
41317.0,0.46846846846846846,0
41333.0,0.44144144144144143,0
41350.0,0.4144144144144144,0
41367.0,0.38738738738738737,0
41383.0,0.36936936936936937,0
41400.0,0.36036036036036034,0
41417.0,0.34234234234234234,0
41433.0,0.34234234234234234,0
41450.0,0.34234234234234234,0
41467.0,0.34234234234234234,0
41483.0,0.35135135135135137,0
41500.0,0.36036036036036034,0
41517.0,0.36036036036036034,0
41533.0,0.36036036036036034,0
41550.0,0.36036036036036034,0
41567.0,0.35135135135135137,0
41583.0,0.3333333333333333,0
41600.0,0.32432432432432434,0
41617.0,0.3063063063063063,0
41633.0,0.2972972972972973,0
41650.0,0.27927927927927926,0
41667.0,0.2702702702702703,0
41683.0,0.26126126126126126,0
41700.0,0.24324324324324326,0
41717.0,0.24324324324324326,0
41733.0,0.23423423423423423,0
41750.0,0.23423423423423423,0
41767.0,0.22522522522522523,0
41783.0,0.22522522522522523,0
41800.0,0.22522522522522523,0
41817.0,0.22522522522522523,0
41833.0,0.22522522522522523,0
41850.0,0.22522522522522523,0
41867.0,0.22522522522522523,0
41883.0,0.22522522522522523,0
41900.0,0.22522522522522523,0
41917.0,0.21621621621621623,0
41933.0,0.2072072072072072,0
41950.0,0.1981981981981982,0
41967.0,0.1981981981981982,0
41983.0,0.1891891891891892,0
42000.0,0.18018018018018017,0
42017.0,0.17117117117117117,0
42033.0,0.17117117117117117,0
42050.0,0.18018018018018017,0
42067.0,0.2072072072072072,0
42083.0,0.26126126126126126,0
42100.0,0.32432432432432434,0
42117.0,0.3783783783783784,0
42133.0,0.45045045045045046,0
42150.0,0.4954954954954955,0
42167.0,0.5315315315315315,1
42183.0,0.5315315315315315,0
42200.0,0.5225225225225225,0
42217.0,0.4954954954954955,0
42233.0,0.46846846846846846,0
42250.0,0.44144144144144143,0
42267.0,0.4144144144144144,0
42283.0,0.38738738738738737,0
42300.0,0.36036036036036034,0
42317.0,0.35135135135135137,0
42333.0,0.3333333333333333,0
42350.0,0.32432432432432434,0
42367.0,0.32432432432432434,0
42383.0,0.32432432432432434,0
42400.0,0.3333333333333333,0
42417.0,0.35135135135135137,0
42433.0,0.36036036036036034,0
42450.0,0.36036036036036034,0
42467.0,0.36036036036036034,0
42483.0,0.36036036036036034,0
42500.0,0.36036036036036034,0
42517.0,0.35135135135135137,0
42533.0,0.3333333333333333,0
42550.0,0.32432432432432434,0
42567.0,0.3063063063063063,0
42583.0,0.2882882882882883,0
42600.0,0.27927927927927926,0
42617.0,0.2702702702702703,0
42633.0,0.26126126126126126,0
42650.0,0.25225225225225223,0
42667.0,0.24324324324324326,0
42683.0,0.24324324324324326,0
42700.0,0.24324324324324326,0
42717.0,0.24324324324324326,0
42733.0,0.24324324324324326,0
42750.0,0.24324324324324326,0
42767.0,0.25225225225225223,0
42783.0,0.25225225225225223,0
42800.0,0.25225225225225223,0
42817.0,0.25225225225225223,0
42833.0,0.25225225225225223,0
42850.0,0.25225225225225223,0
42867.0,0.24324324324324326,0
42883.0,0.24324324324324326,0
42900.0,0.23423423423423423,0
42917.0,0.23423423423423423,0
42933.0,0.23423423423423423,0
42950.0,0.25225225225225223,0
42967.0,0.2882882882882883,0
42983.0,0.34234234234234234,0
43000.0,0.38738738738738737,0
43017.0,0.45045045045045046,0
43033.0,0.5135135135135135,0
43050.0,0.5405405405405406,0
43067.0,0.5585585585585585,1
43083.0,0.5495495495495496,0
43100.0,0.5225225225225225,0
43117.0,0.4954954954954955,0
43133.0,0.46846846846846846,0
43150.0,0.44144144144144143,0
43167.0,0.4144144144144144,0
43183.0,0.38738738738738737,0
43200.0,0.36036036036036034,0
43217.0,0.35135135135135137,0
43233.0,0.34234234234234234,0
43250.0,0.3333333333333333,0
43267.0,0.34234234234234234,0
43283.0,0.35135135135135137,0
43300.0,0.36036036036036034,0
43317.0,0.36936936936936937,0
43333.0,0.36936936936936937,0
43350.0,0.3783783783783784,0
43367.0,0.36936936936936937,0
43383.0,0.36036036036036034,0
43400.0,0.35135135135135137,0
43417.0,0.3333333333333333,0
43433.0,0.3153153153153153,0
43450.0,0.3063063063063063,0
43467.0,0.2882882882882883,0
43483.0,0.27927927927927926,0
43500.0,0.2702702702702703,0
43517.0,0.26126126126126126,0
43533.0,0.25225225225225223,0
43550.0,0.25225225225225223,0
43567.0,0.25225225225225223,0
43583.0,0.25225225225225223,0
43600.0,0.25225225225225223,0
43617.0,0.25225225225225223,0
43633.0,0.25225225225225223,0
43650.0,0.25225225225225223,0
43667.0,0.25225225225225223,0
43683.0,0.25225225225225223,0
43700.0,0.25225225225225223,0
43717.0,0.25225225225225223,0
43733.0,0.24324324324324326,0
43750.0,0.24324324324324326,0
43767.0,0.23423423423423423,0
43783.0,0.22522522522522523,0
43800.0,0.21621621621621623,0
43817.0,0.2072072072072072,0
43833.0,0.2072072072072072,0
43850.0,0.21621621621621623,0
43867.0,0.25225225225225223,0
43883.0,0.3063063063063063,0
43900.0,0.36036036036036034,0
43917.0,0.43243243243243246,0
43933.0,0.4954954954954955,0
43950.0,0.5585585585585585,0
43967.0,0.5855855855855856,1
43983.0,0.5855855855855856,0
44000.0,0.5765765765765766,0
44017.0,0.5585585585585585,0
44033.0,0.5315315315315315,0
44050.0,0.4954954954954955,0
44067.0,0.4774774774774775,0
44083.0,0.45045045045045046,0
44100.0,0.42342342342342343,0
44117.0,0.40540540540540543,0
44133.0,0.3963963963963964,0
44150.0,0.38738738738738737,0
44167.0,0.3783783783783784,0
44183.0,0.3783783783783784,0
44200.0,0.38738738738738737,0
44217.0,0.3963963963963964,0
44233.0,0.40540540540540543,0
44250.0,0.40540540540540543,0
44267.0,0.40540540540540543,0
44283.0,0.3963963963963964,0
44300.0,0.38738738738738737,0
44317.0,0.36936936936936937,0
44333.0,0.36036036036036034,0
44350.0,0.35135135135135137,0
44367.0,0.34234234234234234,0
44383.0,0.32432432432432434,0
44400.0,0.3153153153153153,0
44417.0,0.2972972972972973,0
44433.0,0.2882882882882883,0
44450.0,0.2882882882882883,0
44467.0,0.27927927927927926,0
44483.0,0.2882882882882883,0
44500.0,0.2882882882882883,0
44517.0,0.2972972972972973,0
44533.0,0.2972972972972973,0
44550.0,0.3063063063063063,0
44567.0,0.3153153153153153,0
44583.0,0.3153153153153153,0
44600.0,0.3153153153153153,0
44617.0,0.3153153153153153,0
44633.0,0.3153153153153153,0
44650.0,0.2972972972972973,0
44667.0,0.2882882882882883,0
44683.0,0.27927927927927926,0
44700.0,0.2702702702702703,0
44717.0,0.2702702702702703,0
44733.0,0.2702702702702703,0
44750.0,0.2972972972972973,0
44767.0,0.34234234234234234,0
44783.0,0.3963963963963964,0
44800.0,0.4594594594594595,0
44817.0,0.5135135135135135,0
44833.0,0.5675675675675675,0
44850.0,0.5855855855855856,0
44867.0,0.5945945945945946,1
44883.0,0.5855855855855856,0
44900.0,0.5675675675675675,0
44917.0,0.5405405405405406,0
44933.0,0.5135135135135135,0
44950.0,0.4864864864864865,0
44967.0,0.46846846846846846,0
44983.0,0.44144144144144143,0
45000.0,0.42342342342342343,0
45017.0,0.40540540540540543,0
45033.0,0.3963963963963964,0
45050.0,0.3963963963963964,0
45067.0,0.40540540540540543,0
45083.0,0.4144144144144144,0
45100.0,0.42342342342342343,0
45117.0,0.43243243243243246,0
45133.0,0.43243243243243246,0
45150.0,0.43243243243243246,0
45167.0,0.42342342342342343,0
45183.0,0.4144144144144144,0
45200.0,0.40540540540540543,0
45217.0,0.38738738738738737,0
45233.0,0.36936936936936937,0
45250.0,0.36036036036036034,0
45267.0,0.35135135135135137,0
45283.0,0.3333333333333333,0
45300.0,0.32432432432432434,0
45317.0,0.3153153153153153,0
45333.0,0.3063063063063063,0
45350.0,0.3063063063063063,0
45367.0,0.3063063063063063,0
45383.0,0.3063063063063063,0
45400.0,0.3063063063063063,0
45417.0,0.3063063063063063,0
45433.0,0.3153153153153153,0
45450.0,0.3063063063063063,0
45467.0,0.3063063063063063,0
45483.0,0.3063063063063063,0
45500.0,0.2972972972972973,0
45517.0,0.2882882882882883,0
45533.0,0.27927927927927926,0
45550.0,0.2702702702702703,0
45567.0,0.26126126126126126,0
45583.0,0.25225225225225223,0
45600.0,0.25225225225225223,0
45617.0,0.24324324324324326,0
45633.0,0.24324324324324326,0
45650.0,0.25225225225225223,0
45667.0,0.2882882882882883,0
45683.0,0.34234234234234234,0
45700.0,0.40540540540540543,0
45717.0,0.4774774774774775,0
45733.0,0.5405405405405406,0
45750.0,0.5945945945945946,0
45767.0,0.6306306306306306,1
45783.0,0.6306306306306306,0
45800.0,0.6216216216216216,0
45817.0,0.5945945945945946,0
45833.0,0.5765765765765766,0
45850.0,0.5495495495495496,0
45867.0,0.5225225225225225,0
45883.0,0.5045045045045045,0
45900.0,0.4864864864864865,0
45917.0,0.46846846846846846,0
45933.0,0.45045045045045046,0
45950.0,0.44144144144144143,0
45967.0,0.43243243243243246,0
45983.0,0.43243243243243246,0
46000.0,0.44144144144144143,0
46017.0,0.45045045045045046,0
46033.0,0.4594594594594595,0
46050.0,0.4594594594594595,0
46067.0,0.4594594594594595,0
46083.0,0.45045045045045046,0
46100.0,0.43243243243243246,0
46117.0,0.42342342342342343,0
46133.0,0.40540540540540543,0
46150.0,0.38738738738738737,0
46167.0,0.36936936936936937,0
46183.0,0.36036036036036034,0
46200.0,0.35135135135135137,0
46217.0,0.34234234234234234,0
46233.0,0.3333333333333333,0
46250.0,0.32432432432432434,0
46267.0,0.32432432432432434,0
46283.0,0.3153153153153153,0
46300.0,0.3153153153153153,0
46317.0,0.3153153153153153,0
46333.0,0.3153153153153153,0
46350.0,0.3153153153153153,0
46367.0,0.3153153153153153,0
46383.0,0.3063063063063063,0
46400.0,0.3063063063063063,0
46417.0,0.3063063063063063,0
46433.0,0.2972972972972973,0
46450.0,0.2882882882882883,0
46467.0,0.2882882882882883,0
46483.0,0.2882882882882883,0
46500.0,0.27927927927927926,0
46517.0,0.27927927927927926,0
46533.0,0.27927927927927926,0
46550.0,0.2702702702702703,0
46567.0,0.2702702702702703,0
46583.0,0.26126126126126126,0
46600.0,0.26126126126126126,0
46617.0,0.2702702702702703,0
46633.0,0.3063063063063063,0
46650.0,0.35135135135135137,0
46667.0,0.3963963963963964,0
46683.0,0.46846846846846846,0
46700.0,0.5315315315315315,0
46717.0,0.5855855855855856,0
46733.0,0.6126126126126126,0
46750.0,0.6216216216216216,1
46767.0,0.6126126126126126,0
46783.0,0.5945945945945946,0
46800.0,0.5675675675675675,0
46817.0,0.5495495495495496,0
46833.0,0.5315315315315315,0
46850.0,0.5045045045045045,0
46867.0,0.4864864864864865,0
46883.0,0.46846846846846846,0
46900.0,0.45045045045045046,0
46917.0,0.44144144144144143,0
46933.0,0.44144144144144143,0
46950.0,0.44144144144144143,0
46967.0,0.44144144144144143,0
46983.0,0.45045045045045046,0
47000.0,0.45045045045045046,0
47017.0,0.45045045045045046,0
47033.0,0.44144144144144143,0
47050.0,0.43243243243243246,0
47067.0,0.4144144144144144,0
47083.0,0.40540540540540543,0
47100.0,0.38738738738738737,0
47117.0,0.36936936936936937,0
47133.0,0.36036036036036034,0
47150.0,0.35135135135135137,0
47167.0,0.34234234234234234,0
47183.0,0.3333333333333333,0
47200.0,0.32432432432432434,0
47217.0,0.3153153153153153,0
47233.0,0.3063063063063063,0
47250.0,0.3063063063063063,0
47267.0,0.2972972972972973,0
47283.0,0.2972972972972973,0
47300.0,0.2972972972972973,0
47317.0,0.2972972972972973,0
47333.0,0.2972972972972973,0
47350.0,0.2972972972972973,0
47367.0,0.2882882882882883,0
47383.0,0.2882882882882883,0
47400.0,0.27927927927927926,0
47417.0,0.2702702702702703,0
47433.0,0.2702702702702703,0
47450.0,0.26126126126126126,0
47467.0,0.25225225225225223,0
47483.0,0.25225225225225223,0
47500.0,0.24324324324324326,0
47517.0,0.23423423423423423,0
47533.0,0.22522522522522523,0
47550.0,0.21621621621621623,0
47567.0,0.2072072072072072,0
47583.0,0.2072072072072072,0
47600.0,0.22522522522522523,0
47617.0,0.25225225225225223,0
47633.0,0.3063063063063063,0
47650.0,0.36936936936936937,0
47667.0,0.44144144144144143,0
47683.0,0.5135135135135135,0
47700.0,0.5675675675675675,0
47717.0,0.5945945945945946,1
47733.0,0.5945945945945946,0
47750.0,0.5855855855855856,0
47767.0,0.5675675675675675,0
47783.0,0.5405405405405406,0
47800.0,0.5135135135135135,0
47817.0,0.4954954954954955,0
47833.0,0.4774774774774775,0
47850.0,0.4594594594594595,0
47867.0,0.44144144144144143,0
47883.0,0.42342342342342343,0
47900.0,0.4144144144144144,0
47917.0,0.40540540540540543,0
47933.0,0.40540540540540543,0
47950.0,0.40540540540540543,0
47967.0,0.4144144144144144,0
47983.0,0.42342342342342343,0
48000.0,0.42342342342342343,0
48017.0,0.42342342342342343,0
48033.0,0.4144144144144144,0
48050.0,0.40540540540540543,0
48067.0,0.38738738738738737,0
48083.0,0.3783783783783784,0
48100.0,0.36036036036036034,0
48117.0,0.36036036036036034,0
48133.0,0.34234234234234234,0
48150.0,0.3333333333333333,0
48167.0,0.32432432432432434,0
48183.0,0.3153153153153153,0
48200.0,0.3063063063063063,0
48217.0,0.2972972972972973,0
48233.0,0.2972972972972973,0
48250.0,0.2882882882882883,0
48267.0,0.2882882882882883,0
48283.0,0.2882882882882883,0
48300.0,0.2882882882882883,0
48317.0,0.2882882882882883,0
48333.0,0.27927927927927926,0
48350.0,0.27927927927927926,0
48367.0,0.2702702702702703,0
48383.0,0.2702702702702703,0
48400.0,0.26126126126126126,0
48417.0,0.25225225225225223,0
48433.0,0.25225225225225223,0
48450.0,0.24324324324324326,0
48467.0,0.24324324324324326,0
48483.0,0.23423423423423423,0
48500.0,0.23423423423423423,0
48517.0,0.22522522522522523,0
48533.0,0.22522522522522523,0
48550.0,0.21621621621621623,0
48567.0,0.21621621621621623,0
48583.0,0.21621621621621623,0
48600.0,0.21621621621621623,0
48617.0,0.21621621621621623,0
48633.0,0.24324324324324326,0
48650.0,0.27927927927927926,0
48667.0,0.34234234234234234,0
48683.0,0.3963963963963964,0
48700.0,0.46846846846846846,0
48717.0,0.5315315315315315,0
48733.0,0.5855855855855856,0
48750.0,0.6036036036036037,1
48767.0,0.6036036036036037,0
48783.0,0.5855855855855856,0
48800.0,0.5585585585585585,0
48817.0,0.5225225225225225,0
48833.0,0.4954954954954955,0
48850.0,0.46846846846846846,0
48867.0,0.44144144144144143,0
48883.0,0.42342342342342343,0
48900.0,0.3963963963963964,0
48917.0,0.3783783783783784,0
48933.0,0.36936936936936937,0
48950.0,0.36936936936936937,0
48967.0,0.36936936936936937,0
48983.0,0.3783783783783784,0
49000.0,0.38738738738738737,0
49017.0,0.3963963963963964,0
49033.0,0.40540540540540543,0
49050.0,0.40540540540540543,0
49067.0,0.40540540540540543,0
49083.0,0.3963963963963964,0
49100.0,0.38738738738738737,0
49117.0,0.3783783783783784,0
49133.0,0.36036036036036034,0
49150.0,0.35135135135135137,0
49167.0,0.3333333333333333,0
49183.0,0.32432432432432434,0
49200.0,0.3063063063063063,0
49217.0,0.2972972972972973,0
49233.0,0.2882882882882883,0
49250.0,0.2882882882882883,0
49267.0,0.27927927927927926,0
49283.0,0.2882882882882883,0
49300.0,0.2882882882882883,0
49317.0,0.2882882882882883,0
49333.0,0.2882882882882883,0
49350.0,0.2882882882882883,0
49367.0,0.2882882882882883,0
49383.0,0.27927927927927926,0
49400.0,0.27927927927927926,0
49417.0,0.2702702702702703,0
49433.0,0.26126126126126126,0
49450.0,0.26126126126126126,0
49467.0,0.25225225225225223,0
49483.0,0.24324324324324326,0
49500.0,0.23423423423423423,0
49517.0,0.22522522522522523,0
49533.0,0.21621621621621623,0
49550.0,0.2072072072072072,0
49567.0,0.1981981981981982,0
49583.0,0.1891891891891892,0
49600.0,0.1981981981981982,0
49617.0,0.22522522522522523,0
49633.0,0.2702702702702703,0
49650.0,0.3333333333333333,0
49667.0,0.3963963963963964,0
49683.0,0.46846846846846846,0
49700.0,0.5315315315315315,0
49717.0,0.5765765765765766,0
49733.0,0.5855855855855856,1
49750.0,0.5855855855855856,0
49767.0,0.5675675675675675,0
49783.0,0.5405405405405406,0
49800.0,0.5135135135135135,0
49817.0,0.4864864864864865,0
49833.0,0.4594594594594595,0
49850.0,0.43243243243243246,0
49867.0,0.40540540540540543,0
49883.0,0.38738738738738737,0
49900.0,0.3783783783783784,0
49917.0,0.36936936936936937,0
49933.0,0.36936936936936937,0
49950.0,0.36936936936936937,0
49967.0,0.3783783783783784,0
49983.0,0.38738738738738737,0
50000.0,0.3963963963963964,0
50017.0,0.3963963963963964,0
50033.0,0.3963963963963964,0
50050.0,0.38738738738738737,0
50067.0,0.36936936936936937,0
50083.0,0.36036036036036034,0
50100.0,0.34234234234234234,0
50117.0,0.32432432432432434,0
50133.0,0.3063063063063063,0
50150.0,0.2972972972972973,0
50167.0,0.27927927927927926,0
50183.0,0.2702702702702703,0
50200.0,0.25225225225225223,0
50217.0,0.25225225225225223,0
50233.0,0.24324324324324326,0
50250.0,0.24324324324324326,0
50267.0,0.24324324324324326,0
50283.0,0.24324324324324326,0
50300.0,0.24324324324324326,0
50317.0,0.25225225225225223,0
50333.0,0.25225225225225223,0
50350.0,0.25225225225225223,0
50367.0,0.25225225225225223,0
50383.0,0.25225225225225223,0
50400.0,0.24324324324324326,0
50417.0,0.24324324324324326,0
50433.0,0.24324324324324326,0
50450.0,0.23423423423423423,0
50467.0,0.23423423423423423,0
50483.0,0.22522522522522523,0
50500.0,0.21621621621621623,0
50517.0,0.21621621621621623,0
50533.0,0.2072072072072072,0
50550.0,0.2072072072072072,0
50567.0,0.1981981981981982,0
50583.0,0.1981981981981982,0
50600.0,0.1981981981981982,0
50617.0,0.21621621621621623,0
50633.0,0.24324324324324326,0
50650.0,0.2972972972972973,0
50667.0,0.36036036036036034,0
50683.0,0.43243243243243246,0
50700.0,0.5045045045045045,0
50717.0,0.5675675675675675,0
50733.0,0.5945945945945946,0
50750.0,0.6036036036036037,1
50767.0,0.5945945945945946,0
50783.0,0.5675675675675675,0
50800.0,0.5315315315315315,0
50817.0,0.5045045045045045,0
50833.0,0.4774774774774775,0
50850.0,0.45045045045045046,0
50867.0,0.42342342342342343,0
50883.0,0.40540540540540543,0
50900.0,0.38738738738738737,0
50917.0,0.3783783783783784,0
50933.0,0.36936936936936937,0
50950.0,0.36936936936936937,0
50967.0,0.3783783783783784,0
50983.0,0.38738738738738737,0
51000.0,0.3963963963963964,0
51017.0,0.40540540540540543,0
51033.0,0.40540540540540543,0
51050.0,0.40540540540540543,0
51067.0,0.3963963963963964,0
51083.0,0.3783783783783784,0
51100.0,0.36936936936936937,0
51117.0,0.36036036036036034,0
51133.0,0.34234234234234234,0
51150.0,0.32432432432432434,0
51167.0,0.3063063063063063,0
51183.0,0.2882882882882883,0
51200.0,0.2702702702702703,0
51217.0,0.26126126126126126,0
51233.0,0.25225225225225223,0
51250.0,0.24324324324324326,0
51267.0,0.23423423423423423,0
51283.0,0.23423423423423423,0
51300.0,0.23423423423423423,0
51317.0,0.23423423423423423,0
51333.0,0.23423423423423423,0
51350.0,0.23423423423423423,0
51367.0,0.23423423423423423,0
51383.0,0.23423423423423423,0
51400.0,0.23423423423423423,0
51417.0,0.23423423423423423,0
51433.0,0.23423423423423423,0
51450.0,0.22522522522522523,0
51467.0,0.22522522522522523,0
51483.0,0.21621621621621623,0
51500.0,0.2072072072072072,0
51517.0,0.2072072072072072,0
51533.0,0.1981981981981982,0
51550.0,0.1891891891891892,0
51567.0,0.1891891891891892,0
51583.0,0.1891891891891892,0
51600.0,0.2072072072072072,0
51617.0,0.25225225225225223,0
51633.0,0.3063063063063063,0
51650.0,0.36936936936936937,0
51667.0,0.44144144144144143,0
51683.0,0.5045045045045045,0
51700.0,0.5495495495495496,0
51717.0,0.5675675675675675,1
51733.0,0.5675675675675675,0
51750.0,0.5495495495495496,0
51767.0,0.5225225225225225,0
51783.0,0.4954954954954955,0
51800.0,0.46846846846846846,0
51817.0,0.44144144144144143,0
51833.0,0.40540540540540543,0
51850.0,0.3783783783783784,0
51867.0,0.36036036036036034,0
51883.0,0.35135135135135137,0
51900.0,0.3333333333333333,0
51917.0,0.3333333333333333,0
51933.0,0.34234234234234234,0
51950.0,0.36036036036036034,0
51967.0,0.36036036036036034,0
51983.0,0.3783783783783784,0
52000.0,0.3783783783783784,0
52017.0,0.3783783783783784,0
52033.0,0.36936936936936937,0
52050.0,0.36036036036036034,0
52067.0,0.35135135135135137,0
52083.0,0.34234234234234234,0
52100.0,0.32432432432432434,0
52117.0,0.3063063063063063,0
52133.0,0.2882882882882883,0
52150.0,0.27927927927927926,0
52167.0,0.26126126126126126,0
52183.0,0.25225225225225223,0
52200.0,0.24324324324324326,0
52217.0,0.23423423423423423,0
52233.0,0.23423423423423423,0
52250.0,0.22522522522522523,0
52267.0,0.22522522522522523,0
52283.0,0.22522522522522523,0
52300.0,0.22522522522522523,0
52317.0,0.22522522522522523,0
52333.0,0.22522522522522523,0
52350.0,0.23423423423423423,0
52367.0,0.23423423423423423,0
52383.0,0.23423423423423423,0
52400.0,0.22522522522522523,0
52417.0,0.22522522522522523,0
52433.0,0.22522522522522523,0
52450.0,0.21621621621621623,0
52467.0,0.21621621621621623,0
52483.0,0.2072072072072072,0
52500.0,0.21621621621621623,0
52517.0,0.23423423423423423,0
52533.0,0.27927927927927926,0
52550.0,0.35135135135135137,0
52567.0,0.4144144144144144,0
52583.0,0.4864864864864865,0
52600.0,0.5585585585585585,0
52617.0,0.5945945945945946,0
52633.0,0.6126126126126126,1
52650.0,0.6036036036036037,0
52667.0,0.5855855855855856,0
52683.0,0.5585585585585585,0
52700.0,0.5315315315315315,0
52717.0,0.4954954954954955,0
52733.0,0.46846846846846846,0
52750.0,0.44144144144144143,0
52767.0,0.42342342342342343,0
52783.0,0.3963963963963964,0
52800.0,0.3783783783783784,0
52817.0,0.36936936936936937,0
52833.0,0.36036036036036034,0
52850.0,0.36936936936936937,0
52867.0,0.36936936936936937,0
52883.0,0.38738738738738737,0
52900.0,0.3963963963963964,0
52917.0,0.3963963963963964,0
52933.0,0.3963963963963964,0
52950.0,0.38738738738738737,0
52967.0,0.3783783783783784,0
52983.0,0.36936936936936937,0
53000.0,0.36036036036036034,0
53017.0,0.34234234234234234,0
53033.0,0.32432432432432434,0
53050.0,0.3063063063063063,0
53067.0,0.2972972972972973,0
53083.0,0.27927927927927926,0
53100.0,0.2702702702702703,0
53117.0,0.26126126126126126,0
53133.0,0.25225225225225223,0
53150.0,0.24324324324324326,0
53167.0,0.24324324324324326,0
53183.0,0.23423423423423423,0
53200.0,0.23423423423423423,0
53217.0,0.24324324324324326,0
53233.0,0.24324324324324326,0
53250.0,0.24324324324324326,0
53267.0,0.24324324324324326,0
53283.0,0.24324324324324326,0
53300.0,0.24324324324324326,0
53317.0,0.23423423423423423,0
53333.0,0.23423423423423423,0
53350.0,0.22522522522522523,0
53367.0,0.21621621621621623,0
53383.0,0.21621621621621623,0
53400.0,0.2072072072072072,0
53417.0,0.1981981981981982,0
53433.0,0.21621621621621623,0
53450.0,0.24324324324324326,0
53467.0,0.2972972972972973,0
53483.0,0.36036036036036034,0
53500.0,0.44144144144144143,0
53517.0,0.5135135135135135,0
53533.0,0.5765765765765766,0
53550.0,0.6036036036036037,0
53567.0,0.6126126126126126,1
53583.0,0.5945945945945946,0
53600.0,0.5765765765765766,0
53617.0,0.5495495495495496,0
53633.0,0.5135135135135135,0
53650.0,0.4864864864864865,0
53667.0,0.4594594594594595,0
53683.0,0.43243243243243246,0
53700.0,0.4144144144144144,0
53717.0,0.38738738738738737,0
53733.0,0.3783783783783784,0
53750.0,0.36936936936936937,0
53767.0,0.36936936936936937,0
53783.0,0.36936936936936937,0
53800.0,0.3783783783783784,0
53817.0,0.38738738738738737,0
53833.0,0.3963963963963964,0
53850.0,0.3963963963963964,0
53867.0,0.3963963963963964,0
53883.0,0.38738738738738737,0
53900.0,0.3783783783783784,0
53917.0,0.36036036036036034,0
53933.0,0.36036036036036034,0
53950.0,0.34234234234234234,0
53967.0,0.32432432432432434,0
53983.0,0.3063063063063063,0
54000.0,0.2972972972972973,0
54017.0,0.27927927927927926,0
54033.0,0.2702702702702703,0
54050.0,0.26126126126126126,0
54067.0,0.26126126126126126,0
54083.0,0.25225225225225223,0
54100.0,0.25225225225225223,0
54117.0,0.25225225225225223,0
54133.0,0.25225225225225223,0
54150.0,0.26126126126126126,0
54167.0,0.26126126126126126,0
54183.0,0.26126126126126126,0
54200.0,0.26126126126126126,0
54217.0,0.26126126126126126,0
54233.0,0.26126126126126126,0
54250.0,0.25225225225225223,0
54267.0,0.25225225225225223,0
54283.0,0.25225225225225223,0
54300.0,0.24324324324324326,0
54317.0,0.25225225225225223,0
54333.0,0.2702702702702703,0
54350.0,0.3153153153153153,0
54367.0,0.36036036036036034,0
54383.0,0.43243243243243246,0
54400.0,0.4954954954954955,0
54417.0,0.5495495495495496,0
54433.0,0.5855855855855856,0
54450.0,0.5945945945945946,1
54467.0,0.5855855855855856,0
54483.0,0.5675675675675675,0
54500.0,0.5405405405405406,0
54517.0,0.5045045045045045,0
54533.0,0.4774774774774775,0
54550.0,0.45045045045045046,0
54567.0,0.42342342342342343,0
54583.0,0.38738738738738737,0
54600.0,0.36936936936936937,0
54617.0,0.36036036036036034,0
54633.0,0.34234234234234234,0
54650.0,0.34234234234234234,0
54667.0,0.35135135135135137,0
54683.0,0.36036036036036034,0
54700.0,0.36036036036036034,0
54717.0,0.36936936936936937,0
54733.0,0.36936936936936937,0
54750.0,0.36936936936936937,0
54767.0,0.36936936936936937,0
54783.0,0.36036036036036034,0
54800.0,0.35135135135135137,0
54817.0,0.34234234234234234,0
54833.0,0.32432432432432434,0
54850.0,0.3153153153153153,0
54867.0,0.3063063063063063,0
54883.0,0.2882882882882883,0
54900.0,0.27927927927927926,0
54917.0,0.2702702702702703,0
54933.0,0.26126126126126126,0
54950.0,0.26126126126126126,0
54967.0,0.25225225225225223,0
54983.0,0.25225225225225223,0
55000.0,0.25225225225225223,0
55017.0,0.25225225225225223,0
55033.0,0.25225225225225223,0
55050.0,0.25225225225225223,0
55067.0,0.25225225225225223,0
55083.0,0.25225225225225223,0
55100.0,0.25225225225225223,0
55117.0,0.25225225225225223,0
55133.0,0.24324324324324326,0
55150.0,0.24324324324324326,0
55167.0,0.24324324324324326,0
55183.0,0.26126126126126126,0
55200.0,0.3063063063063063,0
55217.0,0.36036036036036034,0
55233.0,0.42342342342342343,0
55250.0,0.4954954954954955,0
55267.0,0.5585585585585585,0
55283.0,0.6126126126126126,0
55300.0,0.6396396396396397,1
55317.0,0.6396396396396397,0
55333.0,0.6216216216216216,0
55350.0,0.6036036036036037,0
55367.0,0.5765765765765766,0
55383.0,0.5405405405405406,0
55400.0,0.5225225225225225,0
55417.0,0.4954954954954955,0
55433.0,0.46846846846846846,0
55450.0,0.45045045045045046,0
55467.0,0.43243243243243246,0
55483.0,0.4144144144144144,0
55500.0,0.4144144144144144,0
55517.0,0.4144144144144144,0
55533.0,0.42342342342342343,0
55550.0,0.43243243243243246,0
55567.0,0.44144144144144143,0
55583.0,0.45045045045045046,0
55600.0,0.45045045045045046,0
55617.0,0.44144144144144143,0
55633.0,0.43243243243243246,0
55650.0,0.42342342342342343,0
55667.0,0.40540540540540543,0
55683.0,0.38738738738738737,0
55700.0,0.36936936936936937,0
55717.0,0.36036036036036034,0
55733.0,0.34234234234234234,0
55750.0,0.3333333333333333,0
55767.0,0.3153153153153153,0
55783.0,0.3063063063063063,0
55800.0,0.2972972972972973,0
55817.0,0.2972972972972973,0
55833.0,0.2882882882882883,0
55850.0,0.2882882882882883,0
55867.0,0.2882882882882883,0
55883.0,0.2882882882882883,0
55900.0,0.2882882882882883,0
55917.0,0.2882882882882883,0
55933.0,0.2882882882882883,0
55950.0,0.2882882882882883,0
55967.0,0.27927927927927926,0
55983.0,0.27927927927927926,0
56000.0,0.2702702702702703,0
56017.0,0.26126126126126126,0
56033.0,0.26126126126126126,0
56050.0,0.26126126126126126,0
56067.0,0.2882882882882883,0
56083.0,0.3333333333333333,0
56100.0,0.3783783783783784,0
56117.0,0.45045045045045046,0
56133.0,0.5225225225225225,0
56150.0,0.5945945945945946,0
56167.0,0.6306306306306306,0
56183.0,0.6576576576576577,1
56200.0,0.6486486486486487,0
56217.0,0.6396396396396397,0
56233.0,0.6126126126126126,0
56250.0,0.5855855855855856,0
56267.0,0.5585585585585585,0
56283.0,0.5405405405405406,0
56300.0,0.5135135135135135,0
56317.0,0.4864864864864865,0
56333.0,0.46846846846846846,0
56350.0,0.45045045045045046,0
56367.0,0.44144144144144143,0
56383.0,0.44144144144144143,0
56400.0,0.44144144144144143,0
56417.0,0.45045045045045046,0
56433.0,0.4594594594594595,0
56450.0,0.46846846846846846,0
56467.0,0.46846846846846846,0
56483.0,0.46846846846846846,0
56500.0,0.4594594594594595,0
56517.0,0.45045045045045046,0
56533.0,0.43243243243243246,0
56550.0,0.42342342342342343,0
56567.0,0.40540540540540543,0
56583.0,0.3963963963963964,0
56600.0,0.38738738738738737,0
56617.0,0.36936936936936937,0
56633.0,0.36036036036036034,0
56650.0,0.36036036036036034,0
56667.0,0.35135135135135137,0
56683.0,0.34234234234234234,0
56700.0,0.34234234234234234,0
56717.0,0.3333333333333333,0
56733.0,0.3333333333333333,0
56750.0,0.32432432432432434,0
56767.0,0.32432432432432434,0
56783.0,0.32432432432432434,0
56800.0,0.3153153153153153,0
56817.0,0.3063063063063063,0
56833.0,0.3063063063063063,0
56850.0,0.2972972972972973,0
56867.0,0.2882882882882883,0
56883.0,0.27927927927927926,0
56900.0,0.2702702702702703,0
56917.0,0.26126126126126126,0
56933.0,0.25225225225225223,0
56950.0,0.24324324324324326,0
56967.0,0.26126126126126126,0
56983.0,0.2882882882882883,0
57000.0,0.34234234234234234,0
57017.0,0.3963963963963964,0
57033.0,0.4774774774774775,0
57050.0,0.5405405405405406,0
57067.0,0.6036036036036037,0
57083.0,0.6306306306306306,0
57100.0,0.6396396396396397,1
57117.0,0.6306306306306306,0
57133.0,0.6126126126126126,0
57150.0,0.5945945945945946,0
57167.0,0.5675675675675675,0
57183.0,0.5405405405405406,0
57200.0,0.5135135135135135,0
57217.0,0.4864864864864865,0
57233.0,0.4594594594594595,0
57250.0,0.44144144144144143,0
57267.0,0.43243243243243246,0
57283.0,0.42342342342342343,0
57300.0,0.43243243243243246,0
57317.0,0.44144144144144143,0
57333.0,0.45045045045045046,0
57350.0,0.4594594594594595,0
57367.0,0.4594594594594595,0
57383.0,0.4594594594594595,0
57400.0,0.45045045045045046,0
57417.0,0.44144144144144143,0
57433.0,0.42342342342342343,0
57450.0,0.4144144144144144,0
57467.0,0.3963963963963964,0
57483.0,0.3783783783783784,0
57500.0,0.36036036036036034,0
57517.0,0.35135135135135137,0
57533.0,0.34234234234234234,0
57550.0,0.32432432432432434,0
57567.0,0.3153153153153153,0
57583.0,0.3063063063063063,0
57600.0,0.3063063063063063,0
57617.0,0.2972972972972973,0
57633.0,0.2972972972972973,0
57650.0,0.2972972972972973,0
57667.0,0.2972972972972973,0
57683.0,0.2972972972972973,0
57700.0,0.2972972972972973,0
57717.0,0.2882882882882883,0
57733.0,0.2882882882882883,0
57750.0,0.2882882882882883,0
57767.0,0.27927927927927926,0
57783.0,0.2702702702702703,0
57800.0,0.2702702702702703,0
57817.0,0.26126126126126126,0
57833.0,0.25225225225225223,0
57850.0,0.24324324324324326,0
57867.0,0.23423423423423423,0
57883.0,0.24324324324324326,0
57900.0,0.2702702702702703,0
57917.0,0.32432432432432434,0
57933.0,0.3783783783783784,0
57950.0,0.4594594594594595,0
57967.0,0.5315315315315315,0
57983.0,0.6036036036036037,0
58000.0,0.6486486486486487,0
58017.0,0.6756756756756757,1
58033.0,0.6756756756756757,0
58050.0,0.6576576576576577,0
58067.0,0.6396396396396397,0
58083.0,0.6126126126126126,0
58100.0,0.5855855855855856,0
58117.0,0.5675675675675675,0
58133.0,0.5405405405405406,0
58150.0,0.5135135135135135,0
58167.0,0.4954954954954955,0
58183.0,0.4774774774774775,0
58200.0,0.46846846846846846,0
58217.0,0.46846846846846846,0
58233.0,0.46846846846846846,0
58250.0,0.4594594594594595,0
58267.0,0.46846846846846846,0
58283.0,0.46846846846846846,0
58300.0,0.46846846846846846,0
58317.0,0.46846846846846846,0
58333.0,0.4594594594594595,0
58350.0,0.46846846846846846,0
58367.0,0.45045045045045046,0
58383.0,0.43243243243243246,0
58400.0,0.4144144144144144,0
58417.0,0.3963963963963964,0
58433.0,0.36936936936936937,0
58450.0,0.36036036036036034,0
58467.0,0.35135135135135137,0
58483.0,0.34234234234234234,0
58500.0,0.3333333333333333,0
58517.0,0.32432432432432434,0
58533.0,0.3153153153153153,0
58550.0,0.3153153153153153,0
58567.0,0.3063063063063063,0
58583.0,0.3063063063063063,0
58600.0,0.3063063063063063,0
58617.0,0.3063063063063063,0
58633.0,0.2972972972972973,0
58650.0,0.2972972972972973,0
58667.0,0.2882882882882883,0
58683.0,0.2882882882882883,0
58700.0,0.27927927927927926,0
58717.0,0.2702702702702703,0
58733.0,0.26126126126126126,0
58750.0,0.26126126126126126,0
58767.0,0.25225225225225223,0
58783.0,0.24324324324324326,0
58800.0,0.23423423423423423,0
58817.0,0.22522522522522523,0
58833.0,0.21621621621621623,0
58850.0,0.21621621621621623,0
58867.0,0.21621621621621623,0
58883.0,0.23423423423423423,0
58900.0,0.2882882882882883,0
58917.0,0.35135135135135137,0
58933.0,0.42342342342342343,0
58950.0,0.5045045045045045,0
58967.0,0.5855855855855856,0
58983.0,0.6486486486486487,0
59000.0,0.6846846846846847,0
59017.0,0.6936936936936937,1
59033.0,0.6846846846846847,0
59050.0,0.6666666666666666,0
59067.0,0.6216216216216216,0
59083.0,0.6036036036036037,0
59100.0,0.5765765765765766,0
59117.0,0.5495495495495496,0
59133.0,0.5315315315315315,0
59150.0,0.5045045045045045,0
59167.0,0.5135135135135135,0
59183.0,0.4954954954954955,0
59200.0,0.4864864864864865,0
59217.0,0.4864864864864865,0
59233.0,0.4954954954954955,0
59250.0,0.4954954954954955,0
59267.0,0.4864864864864865,0
59283.0,0.4864864864864865,0
59300.0,0.4864864864864865,0
59317.0,0.4774774774774775,0
59333.0,0.4594594594594595,0
59350.0,0.44144144144144143,0
59367.0,0.45045045045045046,0
59383.0,0.43243243243243246,0
59400.0,0.40540540540540543,0
59417.0,0.38738738738738737,0
59433.0,0.36936936936936937,0
59450.0,0.36036036036036034,0
59467.0,0.32432432432432434,0
59483.0,0.3153153153153153,0
59500.0,0.3063063063063063,0
59517.0,0.2972972972972973,0
59533.0,0.2972972972972973,0
59550.0,0.2882882882882883,0
59567.0,0.3153153153153153,0
59583.0,0.3063063063063063,0
59600.0,0.3063063063063063,0
59617.0,0.3063063063063063,0
59633.0,0.2972972972972973,0
59650.0,0.2972972972972973,0
59667.0,0.2882882882882883,0
59683.0,0.27927927927927926,0
59700.0,0.2702702702702703,0
59717.0,0.2702702702702703,0
59733.0,0.26126126126126126,0
59750.0,0.25225225225225223,0
59767.0,0.24324324324324326,0
59783.0,0.24324324324324326,0
59800.0,0.23423423423423423,0
59817.0,0.22522522522522523,0
59833.0,0.21621621621621623,0
59850.0,0.21621621621621623,0
59867.0,0.2072072072072072,0
59883.0,0.21621621621621623,0
59900.0,0.24324324324324326,0
59917.0,0.2972972972972973,0
59933.0,0.36036036036036034,0
59950.0,0.44144144144144143,0
59967.0,0.5225225225225225,0
59983.0,0.5765765765765766,0
60000.0,0.6306306306306306,0
60017.0,0.6306306306306306,0
60033.0,0.6396396396396397,1
60050.0,0.6306306306306306,0
60067.0,0.6216216216216216,0
60083.0,0.6036036036036037,0
60100.0,0.5945945945945946,0
60117.0,0.6036036036036037,0
60133.0,0.5855855855855856,0
60150.0,0.5675675675675675,0
60167.0,0.5315315315315315,0
60183.0,0.5405405405405406,0
60200.0,0.5225225225225225,0
60217.0,0.5225225225225225,0
60233.0,0.4954954954954955,0
60250.0,0.4954954954954955,0
60267.0,0.4954954954954955,0
60283.0,0.46846846846846846,0
60300.0,0.4594594594594595,0
60317.0,0.44144144144144143,0
60333.0,0.43243243243243246,0
60350.0,0.4144144144144144,0
60367.0,0.42342342342342343,0
60383.0,0.40540540540540543,0
60400.0,0.3963963963963964,0
60417.0,0.38738738738738737,0
60433.0,0.3783783783783784,0
60450.0,0.36936936936936937,0
60467.0,0.36036036036036034,0
60483.0,0.3783783783783784,0
60500.0,0.36936936936936937,0
60517.0,0.36036036036036034,0
60533.0,0.36936936936936937,0
60550.0,0.36036036036036034,0
60567.0,0.36036036036036034,0
60583.0,0.35135135135135137,0
60600.0,0.35135135135135137,0
60617.0,0.34234234234234234,0
60633.0,0.3333333333333333,0
60650.0,0.32432432432432434,0
60667.0,0.3153153153153153,0
60683.0,0.3153153153153153,0
60700.0,0.3063063063063063,0
60717.0,0.2972972972972973,0
60733.0,0.2882882882882883,0
60750.0,0.2702702702702703,0
60767.0,0.2702702702702703,0
60783.0,0.26126126126126126,0
60800.0,0.25225225225225223,0
60817.0,0.24324324324324326,0
60833.0,0.23423423423423423,0
60850.0,0.22522522522522523,0
60867.0,0.21621621621621623,0
60883.0,0.21621621621621623,0
60900.0,0.2072072072072072,0
60917.0,0.21621621621621623,0
60933.0,0.24324324324324326,0
60950.0,0.2882882882882883,0
60967.0,0.36036036036036034,0
60983.0,0.4144144144144144,0
61000.0,0.4864864864864865,0
61017.0,0.5495495495495496,0
61033.0,0.5855855855855856,0
61050.0,0.6216216216216216,1
61067.0,0.6126126126126126,0
61083.0,0.6126126126126126,0
61100.0,0.5945945945945946,0
61117.0,0.5765765765765766,0
61133.0,0.5495495495495496,0
61150.0,0.5135135135135135,0
61167.0,0.4864864864864865,0
61183.0,0.4594594594594595,0
61200.0,0.44144144144144143,0
61217.0,0.42342342342342343,0
61233.0,0.40540540540540543,0
61250.0,0.3963963963963964,0
61267.0,0.3963963963963964,0
61283.0,0.3963963963963964,0
61300.0,0.40540540540540543,0
61317.0,0.4144144144144144,0
61333.0,0.42342342342342343,0
61350.0,0.42342342342342343,0
61367.0,0.43243243243243246,0
61383.0,0.42342342342342343,0
61400.0,0.42342342342342343,0
61417.0,0.4144144144144144,0
61433.0,0.4144144144144144,0
61450.0,0.40540540540540543,0
61467.0,0.4144144144144144,0
61483.0,0.40540540540540543,0
61500.0,0.3963963963963964,0
61517.0,0.3783783783783784,0
61533.0,0.36036036036036034,0
61550.0,0.35135135135135137,0
61567.0,0.3333333333333333,0
61583.0,0.3063063063063063,0
61600.0,0.2882882882882883,0
61617.0,0.2882882882882883,0
61633.0,0.2702702702702703,0
61650.0,0.27927927927927926,0
61667.0,0.26126126126126126,0
61683.0,0.24324324324324326,0
61700.0,0.23423423423423423,0
61717.0,0.22522522522522523,0
61733.0,0.24324324324324326,0
61750.0,0.23423423423423423,0
61767.0,0.22522522522522523,0
61783.0,0.24324324324324326,0
61800.0,0.25225225225225223,0
61817.0,0.24324324324324326,0
61833.0,0.22522522522522523,0
61850.0,0.21621621621621623,0
61867.0,0.2072072072072072,0
61883.0,0.2072072072072072,0
61900.0,0.24324324324324326,0
61917.0,0.2882882882882883,0
61933.0,0.3333333333333333,0
61950.0,0.3783783783783784,0
61967.0,0.45045045045045046,0
61983.0,0.4864864864864865,0
62000.0,0.5045045045045045,1
62017.0,0.4954954954954955,0
62033.0,0.4954954954954955,0
62050.0,0.4864864864864865,0
62067.0,0.46846846846846846,0
62083.0,0.45045045045045046,0
62100.0,0.42342342342342343,0
62117.0,0.42342342342342343,0
62133.0,0.3963963963963964,0
62150.0,0.36936936936936937,0
62167.0,0.36036036036036034,0
62183.0,0.36036036036036034,0
62200.0,0.36036036036036034,0
62217.0,0.35135135135135137,0
62233.0,0.3783783783783784,0
62250.0,0.3963963963963964,0
62267.0,0.38738738738738737,0
62283.0,0.40540540540540543,0
62300.0,0.40540540540540543,0
62317.0,0.42342342342342343,0
62333.0,0.4144144144144144,0
62350.0,0.40540540540540543,0
62367.0,0.40540540540540543,0
62383.0,0.3783783783783784,0
62400.0,0.3783783783783784,0
62417.0,0.36036036036036034,0
62433.0,0.34234234234234234,0
62450.0,0.34234234234234234,0
62467.0,0.32432432432432434,0
62483.0,0.3063063063063063,0
62500.0,0.2882882882882883,0
62517.0,0.2702702702702703,0
62533.0,0.26126126126126126,0
62550.0,0.25225225225225223,0
62567.0,0.24324324324324326,0
62583.0,0.24324324324324326,0
62600.0,0.23423423423423423,0
62617.0,0.23423423423423423,0
62633.0,0.23423423423423423,0
62650.0,0.22522522522522523,0
62667.0,0.22522522522522523,0
62683.0,0.22522522522522523,0
62700.0,0.23423423423423423,0
62717.0,0.2702702702702703,0
62733.0,0.32432432432432434,0
62750.0,0.36036036036036034,0
62767.0,0.44144144144144143,0
62783.0,0.5225225225225225,0
62800.0,0.5585585585585585,0
62817.0,0.5855855855855856,0
62833.0,0.6036036036036037,1
62850.0,0.6036036036036037,0
62867.0,0.5675675675675675,0
62883.0,0.5495495495495496,0
62900.0,0.5225225225225225,0
62917.0,0.4954954954954955,0
62933.0,0.46846846846846846,0
62950.0,0.4594594594594595,0
62967.0,0.43243243243243246,0
62983.0,0.40540540540540543,0
63000.0,0.4144144144144144,0
63017.0,0.40540540540540543,0
63033.0,0.40540540540540543,0
63050.0,0.40540540540540543,0
63067.0,0.4144144144144144,0
63083.0,0.43243243243243246,0
63100.0,0.4144144144144144,0
63117.0,0.44144144144144143,0
63133.0,0.44144144144144143,0
63150.0,0.42342342342342343,0
63167.0,0.4144144144144144,0
63183.0,0.38738738738738737,0
63200.0,0.38738738738738737,0
63217.0,0.36936936936936937,0
63233.0,0.35135135135135137,0
63250.0,0.32432432432432434,0
63267.0,0.32432432432432434,0
63283.0,0.3063063063063063,0
63300.0,0.2972972972972973,0
63317.0,0.27927927927927926,0
63333.0,0.2702702702702703,0
63350.0,0.26126126126126126,0
63367.0,0.26126126126126126,0
63383.0,0.25225225225225223,0
63400.0,0.25225225225225223,0
63417.0,0.24324324324324326,0
63433.0,0.24324324324324326,0
63450.0,0.23423423423423423,0
63467.0,0.23423423423423423,0
63483.0,0.25225225225225223,0
63500.0,0.27927927927927926,0
63517.0,0.3153153153153153,0
63533.0,0.36936936936936937,0
63550.0,0.4144144144144144,0
63567.0,0.46846846846846846,0
63583.0,0.5225225225225225,0
63600.0,0.5315315315315315,0
63617.0,0.5405405405405406,1
63633.0,0.5315315315315315,0
63650.0,0.5135135135135135,0
63667.0,0.4864864864864865,0
63683.0,0.4594594594594595,0
63700.0,0.4594594594594595,0
63717.0,0.43243243243243246,0
63733.0,0.40540540540540543,0
63750.0,0.40540540540540543,0
63767.0,0.3783783783783784,0
63783.0,0.35135135135135137,0
63800.0,0.35135135135135137,0
63817.0,0.35135135135135137,0
63833.0,0.35135135135135137,0
63850.0,0.36036036036036034,0
63867.0,0.36936936936936937,0
63883.0,0.36936936936936937,0
63900.0,0.3783783783783784,0
63917.0,0.3783783783783784,0
63933.0,0.36936936936936937,0
63950.0,0.36036036036036034,0
63967.0,0.35135135135135137,0
63983.0,0.35135135135135137,0
64000.0,0.3333333333333333,0
64016.99999999999,0.34234234234234234,0
64033.0,0.32432432432432434,0
64050.0,0.3063063063063063,0
64066.99999999999,0.3153153153153153,0
64083.0,0.2972972972972973,0
64099.99999999999,0.27927927927927926,0
64117.00000000001,0.2702702702702703,0
64132.99999999999,0.26126126126126126,0
64150.00000000001,0.25225225225225223,0
64167.0,0.24324324324324326,0
64183.00000000001,0.24324324324324326,0
64200.0,0.23423423423423423,0
64217.0,0.22522522522522523,0
64233.00000000001,0.22522522522522523,0
64250.0,0.22522522522522523,0
64266.99999999999,0.23423423423423423,0
64283.0,0.2702702702702703,0
64300.0,0.32432432432432434,0
64316.99999999999,0.36036036036036034,0
64333.0,0.3963963963963964,0
64349.99999999999,0.4594594594594595,0
64367.00000000001,0.4864864864864865,0
64382.99999999999,0.5045045045045045,1
64400.00000000001,0.4954954954954955,0
64417.0,0.4864864864864865,0
64433.00000000001,0.4774774774774775,0
64450.0,0.45045045045045046,0
64467.0,0.44144144144144143,0
64483.00000000001,0.3963963963963964,0
64500.0,0.36936936936936937,0
64516.99999999999,0.36936936936936937,0
64533.0,0.36036036036036034,0
64550.0,0.34234234234234234,0
64566.99999999999,0.3333333333333333,0
64583.0,0.35135135135135137,0
64599.99999999999,0.35135135135135137,0
64617.00000000001,0.36036036036036034,0
64632.99999999999,0.36036036036036034,0
64650.00000000001,0.36936936936936937,0
64667.0,0.36036036036036034,0
64683.00000000001,0.36036036036036034,0
64700.0,0.35135135135135137,0
64717.0,0.3333333333333333,0
64733.00000000001,0.3063063063063063,0
64750.0,0.2882882882882883,0
64766.99999999999,0.2702702702702703,0
64783.0,0.25225225225225223,0
64800.0,0.23423423423423423,0
64816.99999999999,0.21621621621621623,0
64833.0,0.1981981981981982,0
64849.99999999999,0.1891891891891892,0
64867.00000000001,0.18018018018018017,0
64882.99999999999,0.18018018018018017,0
64900.00000000001,0.17117117117117117,0
64917.0,0.17117117117117117,0
64933.00000000001,0.17117117117117117,0
64950.0,0.18018018018018017,0
64967.0,0.18018018018018017,0
64983.00000000001,0.17117117117117117,0
65000.0,0.17117117117117117,0
65016.99999999999,0.17117117117117117,0
65033.0,0.16216216216216217,0
65050.0,0.16216216216216217,0
65066.99999999999,0.17117117117117117,0
65083.0,0.1891891891891892,0
65099.99999999999,0.22522522522522523,0
65117.00000000001,0.27927927927927926,0
65132.99999999999,0.3153153153153153,0
65150.00000000001,0.3783783783783784,0
65167.0,0.44144144144144143,0
65183.00000000001,0.4774774774774775,0
65200.0,0.5045045045045045,0
65217.0,0.5045045045045045,0
65233.00000000001,0.5135135135135135,1
65250.0,0.4864864864864865,0
65266.99999999999,0.4594594594594595,0
65283.0,0.42342342342342343,0
65300.0,0.3963963963963964,0
65316.99999999999,0.36036036036036034,0
65333.0,0.34234234234234234,0
65349.99999999999,0.3153153153153153,0
65367.00000000001,0.2882882882882883,0
65382.99999999999,0.27927927927927926,0
65400.00000000001,0.27927927927927926,0
65417.0,0.27927927927927926,0
65433.00000000001,0.27927927927927926,0
65450.0,0.2882882882882883,0
65467.0,0.2972972972972973,0
65483.00000000001,0.2972972972972973,0
65500.0,0.2972972972972973,0
65516.99999999999,0.2882882882882883,0
65533.0,0.27927927927927926,0
65550.0,0.2702702702702703,0
65567.0,0.26126126126126126,0
65583.0,0.25225225225225223,0
65600.0,0.24324324324324326,0
65617.0,0.23423423423423423,0
65633.0,0.23423423423423423,0
65650.0,0.23423423423423423,0
65667.0,0.22522522522522523,0
65683.0,0.22522522522522523,0
65700.0,0.22522522522522523,0
65717.0,0.23423423423423423,0
65733.0,0.23423423423423423,0
65750.0,0.24324324324324326,0
65767.0,0.24324324324324326,0
65783.0,0.24324324324324326,0
65800.0,0.24324324324324326,0
65817.0,0.24324324324324326,0
65833.0,0.24324324324324326,0
65850.0,0.23423423423423423,0
65867.0,0.23423423423423423,0
65883.0,0.22522522522522523,0
65900.0,0.21621621621621623,0
65917.0,0.21621621621621623,0
65933.0,0.22522522522522523,0
65950.0,0.24324324324324326,0
65967.0,0.27927927927927926,0
65983.0,0.3333333333333333,0
66000.0,0.3783783783783784,0
66017.0,0.43243243243243246,0
66033.0,0.46846846846846846,0
66050.0,0.4864864864864865,0
66067.0,0.4774774774774775,0
66083.0,0.5765765765765766,1
66100.0,0.5225225225225225,0
66117.0,0.46846846846846846,0
66133.0,0.4144144144144144,0
66150.0,0.36036036036036034,0
66167.0,0.2972972972972973,0
66183.0,0.24324324324324326,0
66200.0,0.2072072072072072,0
66217.0,0.18018018018018017,0
66233.0,0.18018018018018017,0
66250.0,0.1981981981981982,0
66267.0,0.22522522522522523,0
66283.0,0.26126126126126126,0
66300.0,0.2882882882882883,0
66317.0,0.2972972972972973,0
66333.0,0.3063063063063063,0
66350.0,0.2972972972972973,0
66367.0,0.27927927927927926,0
66383.0,0.26126126126126126,0
66400.0,0.23423423423423423,0
66417.0,0.2072072072072072,0
66433.0,0.18018018018018017,0
66450.0,0.15315315315315314,0
66467.0,0.12612612612612611,0
66483.0,0.10810810810810811,0
66500.0,0.09009009009009009,0
66517.0,0.07207207207207207,0
66533.0,0.05405405405405406,0
66550.0,0.04504504504504504,0
66567.0,0.036036036036036036,0
66583.0,0.02702702702702703,0
66600.0,0.02702702702702703,0
66617.0,0.018018018018018018,0
66633.0,0.018018018018018018,0
66650.0,0.009009009009009009,0
66667.0,0.018018018018018018,0
66683.0,0.018018018018018018,0
66700.0,0.018018018018018018,0
66717.0,0.02702702702702703,0
66733.0,0.02702702702702703,0
66750.0,0.02702702702702703,0
66767.0,0.02702702702702703,0
66783.0,0.02702702702702703,0
66800.0,0.05405405405405406,0
66817.0,0.10810810810810811,0
66833.0,0.2072072072072072,0
66850.0,0.3333333333333333,0
66867.0,0.4594594594594595,0
66883.0,0.5945945945945946,0
66900.0,0.7117117117117117,0
66917.0,0.7747747747747747,0
66933.0,0.7837837837837838,1
66950.0,0.7567567567567568,0
66967.0,0.7027027027027027,0
66983.0,0.6396396396396397,0
67000.0,0.5855855855855856,0
67017.0,0.5225225225225225,0
67033.0,0.4774774774774775,0
67050.0,0.43243243243243246,0
67067.0,0.38738738738738737,0
67083.0,0.36036036036036034,0
67100.0,0.3333333333333333,0
67117.0,0.3153153153153153,0
67133.0,0.3153153153153153,0
67150.0,0.32432432432432434,0
67167.0,0.34234234234234234,0
67183.0,0.36036036036036034,0
67200.0,0.36936936936936937,0
67217.0,0.3783783783783784,0
67233.0,0.3783783783783784,0
67250.0,0.36936936936936937,0
67267.0,0.36036036036036034,0
67283.0,0.34234234234234234,0
67300.0,0.3153153153153153,0
67317.0,0.2882882882882883,0
67333.0,0.26126126126126126,0
67350.0,0.24324324324324326,0
67367.0,0.21621621621621623,0
67383.0,0.1981981981981982,0
67400.0,0.18018018018018017,0
67417.0,0.17117117117117117,0
67433.0,0.15315315315315314,0
67450.0,0.14414414414414414,0
67467.0,0.13513513513513514,0
67483.0,0.12612612612612611,0
67500.0,0.11711711711711711,0
67517.0,0.10810810810810811,0
67533.0,0.09009009009009009,0
67550.0,0.08108108108108109,0
67567.0,0.06306306306306306,0
67583.0,0.05405405405405406,0
67600.0,0.036036036036036036,0
67617.0,0.02702702702702703,0
67633.0,0.018018018018018018,0
67650.0,0.0,0
67667.0,0.0,0
67683.0,0.0,0
67700.0,0.0,0
67717.0,0.036036036036036036,0
67733.0,0.12612612612612611,0
67750.0,0.24324324324324326,0
67767.0,0.3783783783783784,0
67783.0,0.5135135135135135,0
67800.0,0.6306306306306306,0
67817.0,0.7027027027027027,0
67833.0,0.7297297297297297,1
67850.0,0.7207207207207207,0
67867.0,0.6846846846846847,0
67883.0,0.6396396396396397,0
67900.0,0.5945945945945946,0
67917.0,0.5495495495495496,0
67933.0,0.4954954954954955,0
67950.0,0.4594594594594595,0
67967.0,0.42342342342342343,0
67983.0,0.38738738738738737,0
68000.0,0.36036036036036034,0
68017.0,0.36036036036036034,0
68033.0,0.36036036036036034,0
68050.0,0.36936936936936937,0
68067.0,0.38738738738738737,0
68083.0,0.40540540540540543,0
68100.0,0.4144144144144144,0
68117.0,0.4144144144144144,0
68133.0,0.40540540540540543,0
